0.0007	-4.22947	1.43979	0	
0.0013	-5.44212	1.74663	0	
0.0020	-3.60836	1.74663	0	
0.0027	-2.69148	3.28083	0	
0.0033	-2.69148	3.56407	0	
0.0040	-0.872513	0.826108	0	
0.0047	0.665476	-0.708093	0	
0.0053	0.961244	1.13295	0	
0.0060	0.354921	3.56407	0	
0.0067	-0.251402	3.56407	0	
0.0073	0.354921	2.36031	0	
0.0080	0.961244	2.66715	0	
0.0087	-0.872513	3.56407	0	
0.0093	-0.872513	0.826108	0	
0.0100	2.795	-2.52553	0	
0.0107	2.795	-1.60501	0	
0.0113	0.665476	-0.99133	0	
0.0120	0.961244	-3.75289	0	
0.0127	1.2718	-4.67341	0	
0.0133	-0.872513	-4.36657	0	
0.0140	-1.78939	-4.98025	0	
0.0147	-1.16828	-6.49085	0	
0.0153	-2.39571	-7.10453	0	
0.0160	-5.14635	-8.33189	0	
0.0167	-6.04844	-8.02505	0	
0.0173	-3.91892	-3.75289	0	
0.0180	-2.69148	-3.13921	0	
0.0187	-4.52524	-6.79769	0	
0.0193	-3.91892	-6.49085	0	
0.0200	-0.561958	-1.60501	0	
0.0207	-0.251402	0.212428	0	
0.0213	-2.39571	0.826108	0	
0.0220	-0.872513	2.66715	0	
0.0227	0.665476	1.74663	0	
0.0233	-1.78939	1.13295	0	
0.0240	-4.52524	4.17775	0	
0.0247	-4.52524	3.87091	0	
0.0253	-2.08516	0.826108	0	
0.0260	1.56757	0.212428	0	
0.0267	2.18868	0.826108	0	
0.0273	-1.16828	0.212428	0	
0.0280	-4.22947	-0.401252	0	
0.0287	-3.00204	-0.708093	0	
0.0293	-2.08516	0.212428	0	
0.0300	-3.00204	-0.0944123	0	
0.0307	-3.00204	-2.83237	0	
0.0313	-1.78939	-2.83237	0	
0.0320	-0.872513	0.826108	0	
0.0327	0.961244	1.13295	0	
0.0333	2.48445	-0.0944123	0	
0.0340	0.354921	2.05347	0	
0.0347	-2.39571	4.79143	0	
0.0353	-3.31259	2.66715	0	
0.0360	-5.75267	-2.21869	0	
0.0367	-8.50331	-3.13921	0	
0.0373	-8.19275	-1.29817	0	
0.0380	-6.66955	-2.83237	0	
0.0387	-4.52524	-4.98025	0	
0.0393	-1.47884	-2.83237	0	
0.0400	-0.872513	0.826108	0	
0.0407	-1.47884	1.74663	0	
0.0413	0.354921	2.36031	0	
0.0420	2.795	2.66715	0	
0.0427	4.62876	3.56407	0	
0.0433	5.8414	5.40511	0	
0.0440	7.06884	6.32563	0	
0.0447	8.59204	4.48459	0	
0.0453	11.949	4.17775	0	
0.0460	13.7828	6.32563	0	
0.0467	13.7828	7.55299	0	
0.0473	13.7828	5.71195	0	
0.0480	13.7828	5.09827	0	
0.0487	13.7828	7.55299	0	
0.0493	14.6996	7.24615	0	
0.0500	16.2228	2.66715	0	
0.0507	17.4503	2.36031	0	
0.0513	15.6165	5.71195	0	
0.0520	8.28148	5.71195	0	
0.0527	3.10556	3.87091	0	
0.0533	2.795	3.87091	0	
0.0540	1.2718	2.66715	0	
0.0547	0.354921	-0.0944123	0	
0.0553	1.56757	-0.708093	0	
0.0560	0.0443651	0.212428	0	
0.0567	-1.78939	-2.83237	0	
0.0573	-1.16828	-7.41137	0	
0.0580	-3.31259	-6.49085	0	
0.0587	-6.96532	-3.44605	0	
0.0593	-8.79908	-3.75289	0	
0.0600	-9.10963	-4.98025	0	
0.0607	-6.96532	-3.13921	0	
0.0613	-4.52524	-0.99133	0	
0.0620	-6.359	-0.99133	0	
0.0627	-6.96532	-0.99133	0	
0.0633	-5.44212	-0.401252	0	
0.0640	-5.44212	-0.401252	0	
0.0647	-3.91892	-0.0944123	0	
0.0653	-0.872513	-0.0944123	0	
0.0660	-2.39571	-0.401252	0	
0.0667	-3.00204	0.826108	0	
0.0673	-0.561958	2.36031	0	
0.0680	-1.47884	-0.0944123	0	
0.0687	-3.60836	-3.13921	0	
0.0693	-2.08516	-3.13921	0	
0.0700	-0.872513	-1.91185	0	
0.0707	-1.78939	-2.21869	0	
0.0713	-3.60836	-2.83237	0	
0.0720	-7.58643	-2.83237	0	
0.0727	-11.8603	-2.83237	0	
0.0733	-12.156	-1.91185	0	
0.0740	-12.7624	-3.75289	0	
0.0747	-16.1193	-7.41137	0	
0.0753	-18.2636	-7.41137	0	
0.0760	-19.4763	-5.26349	0	
0.0767	-21.31	-4.67341	0	
0.0773	-21.9311	-4.67341	0	
0.0780	-18.5742	-5.87717	0	
0.0787	-14.9067	-8.33189	0	
0.0793	-13.0729	-5.87717	0	
0.0800	-10.3223	-0.99133	0	
0.0807	-4.22947	-1.29817	0	
0.0813	2.18868	-3.75289	0	
0.0820	6.15196	-0.99133	0	
0.0827	9.50892	1.13295	0	
0.0833	13.4722	0.826108	0	
0.0840	17.1397	2.97399	0	
0.0847	21.103	4.48459	0	
0.0853	24.46	3.87091	0	
0.0860	27.2106	4.79143	0	
0.0867	29.3401	5.71195	0	
0.0873	29.3401	4.48459	0	
0.0880	26.6043	3.56407	0	
0.0887	24.1642	2.97399	0	
0.0893	20.4967	2.66715	0	
0.0900	14.3891	3.28083	0	
0.0907	10.1152	3.56407	0	
0.0913	8.28148	2.97399	0	
0.0920	3.10556	2.66715	0	
0.0927	0.0443651	1.74663	0	
0.0933	0.665476	0.519268	0	
0.0940	-1.47884	-0.708093	0	
0.0947	-4.52524	-1.91185	0	
0.0953	-5.44212	-2.21869	0	
0.0960	-9.10963	-1.29817	0	
0.0967	-13.6792	-1.29817	0	
0.0973	-13.6792	-3.13921	0	
0.0980	-13.6792	-4.98025	0	
0.0987	-14.9067	-3.75289	0	
0.0993	-14.5961	-0.99133	0	
0.1000	-12.7624	-1.60501	0	
0.1007	-10.0265	-2.83237	0	
0.1013	-7.27588	-1.29817	0	
0.1020	-5.44212	-0.401252	0	
0.1027	-2.08516	-0.708093	0	
0.1033	0.961244	1.13295	0	
0.1040	0.961244	1.74663	0	
0.1047	1.2718	0.826108	0	
0.1053	2.795	2.05347	0	
0.1060	2.795	2.66715	0	
0.1067	3.40132	1.13295	0	
0.1073	4.62876	0.826108	0	
0.1080	2.795	0.826108	0	
0.1087	0.961244	-0.0944123	0	
0.1093	1.87812	-1.60501	0	
0.1100	1.56757	-3.75289	0	
0.1107	-1.78939	-4.36657	0	
0.1113	-4.8358	-3.13921	0	
0.1120	-5.44212	-4.05973	0	
0.1127	-4.8358	-6.49085	0	
0.1133	-3.91892	-6.18401	0	
0.1140	-3.31259	-6.79769	0	
0.1147	-1.47884	-8.63873	0	
0.1153	1.87812	-8.33189	0	
0.1160	4.02244	-7.41137	0	
0.1167	3.71188	-7.71821	0	
0.1173	2.795	-6.18401	0	
0.1180	2.18868	-2.83237	0	
0.1187	2.18868	-0.0944123	0	
0.1193	2.48445	1.74663	0	
0.1200	1.87812	2.97399	0	
0.1207	1.56757	2.66715	0	
0.1213	1.87812	1.74663	0	
0.1220	1.87812	1.74663	0	
0.1227	2.18868	3.28083	0	
0.1233	2.795	4.17775	0	
0.1240	3.71188	6.01879	0	
0.1247	3.71188	7.83622	0	
0.1253	3.71188	10.5978	0	
0.1260	4.3182	17.6079	0	
0.1267	3.40132	23.4143	0	
0.1273	1.56757	20.9595	0	
0.1280	0.961244	17.3011	0	
0.1287	1.87812	15.7905	0	
0.1293	0.961244	9.37042	0	
0.1300	-1.78939	1.13295	0	
0.1307	-3.60836	-7.41137	0	
0.1313	-3.91892	-21.4552	0	
0.1320	-4.22947	-26.6479	0	
0.1327	-5.44212	-15.0352	0	
0.1333	-8.79908	-6.79769	0	
0.1340	-10.3223	-9.84249	0	
0.1347	-9.10963	-11.0698	0	
0.1353	-7.8822	-10.1493	0	
0.1360	-8.79908	-10.1493	0	
0.1367	-9.10963	-7.10453	0	
0.1373	-7.8822	-4.67341	0	
0.1380	-6.96532	-5.57033	0	
0.1387	-6.359	-5.57033	0	
0.1393	-3.60836	-5.57033	0	
0.1400	1.56757	-6.18401	0	
0.1407	6.15196	-4.67341	0	
0.1413	8.28148	-3.75289	0	
0.1420	8.28148	-2.52553	0	
0.1427	7.98572	1.43979	0	
0.1433	9.19836	4.17775	0	
0.1440	11.3427	6.01879	0	
0.1447	12.8659	12.4152	0	
0.1453	14.3891	18.2216	0	
0.1460	16.2228	16.9942	0	
0.1467	15.6165	13.6426	0	
0.1473	12.8659	11.8251	0	
0.1480	11.3427	9.98411	0	
0.1487	11.3427	7.83622	0	
0.1493	8.59204	6.32563	0	
0.1500	4.62876	6.32563	0	
0.1507	3.40132	5.40511	0	
0.1513	2.795	2.05347	0	
0.1520	0.354921	-0.0944123	0	
0.1527	-1.78939	1.74663	0	
0.1533	-2.69148	0.826108	0	
0.1540	-4.22947	-0.99133	0	
0.1547	-5.44212	0.519268	0	
0.1553	-5.14635	1.74663	0	
0.1560	-6.66955	0.826108	0	
0.1567	-8.19275	1.43979	0	
0.1573	-7.58643	1.74663	0	
0.1580	-7.8822	-0.401252	0	
0.1587	-9.4054	-2.21869	0	
0.1593	-7.8822	-2.52553	0	
0.1600	-6.66955	-2.83237	0	
0.1607	-10.9434	-1.91185	0	
0.1613	-14.5961	-0.99133	0	
0.1620	-12.7624	-1.91185	0	
0.1627	-10.0265	-2.21869	0	
0.1633	-9.4054	-1.29817	0	
0.1640	-7.27588	0.212428	0	
0.1647	-3.60836	1.43979	0	
0.1653	-1.78939	0.212428	0	
0.1660	-0.872513	-0.99133	0	
0.1667	-0.561958	0.826108	0	
0.1673	-2.08516	0.826108	0	
0.1680	-2.39571	-1.60501	0	
0.1687	0.665476	-0.99133	0	
0.1693	2.48445	1.74663	0	
0.1700	2.48445	-0.0944123	0	
0.1707	3.40132	-1.91185	0	
0.1713	3.71188	-0.99133	0	
0.1720	3.71188	-1.29817	0	
0.1727	6.46252	-1.91185	0	
0.1733	8.9026	0.212428	0	
0.1740	7.37939	1.13295	0	
0.1747	5.54564	-0.401252	0	
0.1753	4.92453	-2.21869	0	
0.1760	2.795	-3.75289	0	
0.1767	0.961244	-4.05973	0	
0.1773	1.87812	-3.13921	0	
0.1780	0.961244	-4.05973	0	
0.1787	-4.8358	-4.67341	0	
0.1793	-10.6328	-2.83237	0	
0.1800	-12.7624	-2.52553	0	
0.1807	-14.5961	-2.83237	0	
0.1813	-18.2636	-1.60501	0	
0.1820	-20.3932	-1.60501	0	
0.1827	-19.1805	-1.91185	0	
0.1833	-18.5742	0.212428	0	
0.1840	-18.5742	3.28083	0	
0.1847	-16.4299	3.28083	0	
0.1853	-13.3835	2.66715	0	
0.1860	-9.4054	2.66715	0	
0.1867	-3.60836	4.17775	0	
0.1873	0.961244	3.56407	0	
0.1880	2.48445	1.74663	0	
0.1887	6.75828	2.05347	0	
0.1893	13.1764	3.28083	0	
0.1900	14.6996	0.826108	0	
0.1907	13.7828	-1.91185	0	
0.1913	14.3891	-0.708093	0	
0.1920	15.6165	1.74663	0	
0.1927	16.8292	1.74663	0	
0.1933	16.2228	-0.0944123	0	
0.1940	12.2596	-1.29817	0	
0.1947	9.50892	0.212428	0	
0.1953	9.19836	1.74663	0	
0.1960	7.37939	1.13295	0	
0.1967	4.62876	-0.0944123	0	
0.1973	4.02244	-1.29817	0	
0.1980	2.795	-2.83237	0	
0.1987	1.56757	-2.52553	0	
0.1993	3.10556	-0.401252	0	
0.2000	2.795	0.519268	0	
0.2007	0.0443651	-1.91185	0	
0.2013	1.2718	-4.05973	0	
0.2020	4.62876	-2.52553	0	
0.2027	5.54564	1.74663	0	
0.2033	6.15196	1.74663	0	
0.2040	8.28148	-0.0944123	0	
0.2047	7.06884	-0.0944123	0	
0.2053	3.71188	-0.401252	0	
0.2060	3.71188	0.212428	0	
0.2067	3.71188	3.28083	0	
0.2073	1.87812	3.56407	0	
0.2080	0.961244	3.28083	0	
0.2087	0.0443651	3.87091	0	
0.2093	-2.69148	3.56407	0	
0.2100	-5.44212	2.97399	0	
0.2107	-6.359	3.56407	0	
0.2113	-6.04844	1.43979	0	
0.2120	-4.52524	-1.29817	0	
0.2127	-3.60836	-0.401252	0	
0.2133	-4.8358	0.519268	0	
0.2140	-6.66955	-0.99133	0	
0.2147	-5.44212	-1.91185	0	
0.2153	-2.69148	-0.708093	0	
0.2160	-3.91892	-0.401252	0	
0.2167	-6.359	-1.29817	0	
0.2173	-5.14635	-2.83237	0	
0.2180	-2.69148	-3.75289	0	
0.2187	0.0443651	-3.75289	0	
0.2193	2.795	-3.75289	0	
0.2200	1.56757	-3.75289	0	
0.2207	-4.8358	-2.21869	0	
0.2213	-8.19275	-0.99133	0	
0.2220	-6.66955	0.212428	0	
0.2227	-4.22947	-0.0944123	0	
0.2233	-4.22947	-3.75289	0	
0.2240	-6.04844	-5.26349	0	
0.2247	-6.66955	-2.83237	0	
0.2253	-5.14635	0.212428	0	
0.2260	-3.31259	1.74663	0	
0.2267	-3.00204	2.36031	0	
0.2273	-3.60836	2.97399	0	
0.2280	-3.00204	5.71195	0	
0.2287	-2.39571	5.71195	0	
0.2293	-3.91892	0.826108	0	
0.2300	-3.60836	-0.708093	0	
0.2307	0.961244	3.56407	0	
0.2313	4.3182	3.56407	0	
0.2320	6.46252	-0.99133	0	
0.2327	9.81947	-2.83237	0	
0.2333	11.0321	-1.60501	0	
0.2340	9.19836	-0.99133	0	
0.2347	6.46252	-0.99133	0	
0.2353	3.71188	-1.91185	0	
0.2360	0.961244	-4.67341	0	
0.2367	1.2718	-7.10453	0	
0.2373	2.795	-4.98025	0	
0.2380	2.48445	-3.75289	0	
0.2387	2.48445	-4.67341	0	
0.2393	1.56757	-2.83237	0	
0.2400	-0.872513	2.05347	0	
0.2407	-1.47884	-0.0944123	0	
0.2413	0.0443651	-4.05973	0	
0.2420	0.354921	-1.91185	0	
0.2427	-0.872513	-0.99133	0	
0.2433	-1.78939	-3.44605	0	
0.2440	-0.251402	-1.60501	0	
0.2447	1.87812	2.36031	0	
0.2453	0.961244	1.13295	0	
0.2460	0.0443651	-0.0944123	0	
0.2467	1.87812	2.66715	0	
0.2473	1.87812	3.87091	0	
0.2480	0.961244	3.28083	0	
0.2487	2.48445	4.48459	0	
0.2493	2.795	4.79143	0	
0.2500	0.961244	1.43979	0	
0.2507	0.0443651	-0.708093	0	
0.2513	-0.561958	0.212428	0	
0.2520	-0.872513	0.519268	0	
0.2527	0.0443651	-0.401252	0	
0.2533	0.0443651	-1.60501	0	
0.2540	-2.69148	-3.44605	0	
0.2547	-2.39571	-4.36657	0	
0.2553	0.961244	-2.83237	0	
0.2560	0.0443651	-2.83237	0	
0.2567	-4.22947	-6.79769	0	
0.2573	-6.359	-10.1493	0	
0.2580	-6.359	-7.41137	0	
0.2587	-8.19275	-4.67341	0	
0.2593	-7.8822	-6.49085	0	
0.2600	-3.60836	-5.57033	0	
0.2607	-0.872513	-3.13921	0	
0.2613	-1.78939	-3.13921	0	
0.2620	-1.78939	-3.13921	0	
0.2627	0.354921	-0.0944123	0	
0.2633	0.961244	2.05347	0	
0.2640	-0.251402	0.826108	0	
0.2647	0.961244	-1.60501	0	
0.2653	5.23508	-2.21869	0	
0.2660	6.46252	-0.0944123	0	
0.2667	4.62876	1.43979	0	
0.2673	5.23508	1.74663	0	
0.2680	7.06884	2.36031	0	
0.2687	7.37939	1.43979	0	
0.2693	6.46252	0.212428	0	
0.2700	4.3182	2.05347	0	
0.2707	2.18868	3.87091	0	
0.2713	0.665476	3.56407	0	
0.2720	-1.47884	3.56407	0	
0.2727	-3.60836	3.87091	0	
0.2733	-4.8358	2.97399	0	
0.2740	-5.44212	0.519268	0	
0.2747	-5.44212	-2.83237	0	
0.2753	-4.8358	-3.75289	0	
0.2760	-6.359	-1.91185	0	
0.2767	-8.19275	-0.0944123	0	
0.2773	-4.8358	0.826108	0	
0.2780	-1.16828	1.74663	0	
0.2787	-2.08516	0.826108	0	
0.2793	-1.78939	0.519268	0	
0.2800	2.18868	1.43979	0	
0.2807	4.3182	-0.0944123	0	
0.2813	4.92453	-2.52553	0	
0.2820	7.98572	-1.91185	0	
0.2827	9.81947	-0.99133	0	
0.2833	6.46252	-1.91185	0	
0.2840	4.92453	-0.0944123	0	
0.2847	6.15196	0.826108	0	
0.2853	5.54564	-1.29817	0	
0.2860	6.15196	-0.401252	0	
0.2867	8.28148	2.66715	0	
0.2873	8.28148	2.97399	0	
0.2880	7.98572	2.36031	0	
0.2887	9.19836	2.05347	0	
0.2893	10.1152	0.826108	0	
0.2900	12.2596	1.43979	0	
0.2907	12.5553	3.28083	0	
0.2913	7.06884	2.66715	0	
0.2920	3.71188	2.66715	0	
0.2927	5.54564	4.48459	0	
0.2933	2.795	5.09827	0	
0.2940	-3.60836	4.17775	0	
0.2947	-5.44212	2.66715	0	
0.2953	-5.44212	-0.0944123	0	
0.2960	-6.66955	-0.0944123	0	
0.2967	-6.359	2.97399	0	
0.2973	-7.27588	3.56407	0	
0.2980	-10.3223	1.74663	0	
0.2987	-11.8603	1.74663	0	
0.2993	-12.7624	2.36031	0	
0.3000	-14.5961	1.74663	0	
0.3007	-16.4299	1.43979	0	
0.3013	-17.0362	0.826108	0	
0.3020	-17.6573	-0.401252	0	
0.3027	-17.0362	-0.401252	0	
0.3033	-13.6792	-0.708093	0	
0.3040	-11.8603	-1.91185	0	
0.3047	-12.7624	-0.99133	0	
0.3053	-11.8603	0.212428	0	
0.3060	-7.27588	-1.91185	0	
0.3067	-3.31259	-2.83237	0	
0.3073	-1.47884	-0.99133	0	
0.3080	-0.872513	-1.91185	0	
0.3087	1.2718	-2.83237	0	
0.3093	4.02244	-1.91185	0	
0.3100	2.795	-2.52553	0	
0.3107	-1.16828	-3.44605	0	
0.3113	-0.872513	-2.52553	0	
0.3120	0.961244	-2.83237	0	
0.3127	0.0443651	-2.83237	0	
0.3133	0.665476	-0.0944123	0	
0.3140	2.795	1.13295	0	
0.3147	2.795	-0.99133	0	
0.3153	2.795	-2.52553	0	
0.3160	3.71188	-1.91185	0	
0.3167	4.92453	-0.0944123	0	
0.3173	7.67516	2.66715	0	
0.3180	10.4258	2.97399	0	
0.3187	13.7828	0.212428	0	
0.3193	18.0566	-1.91185	0	
0.3200	20.1861	-2.21869	0	
0.3207	20.1861	-1.29817	0	
0.3213	21.103	-0.708093	0	
0.3220	19.8903	-0.0944123	0	
0.3227	14.9954	0.826108	0	
0.3233	12.8659	0.519268	0	
0.3240	11.949	-0.708093	0	
0.3247	7.98572	0.519268	0	
0.3253	3.71188	3.87091	0	
0.3260	5.54564	5.09827	0	
0.3267	6.46252	4.48459	0	
0.3273	3.10556	5.09827	0	
0.3280	2.18868	5.09827	0	
0.3287	2.795	2.97399	0	
0.3293	0.354921	0.826108	0	
0.3300	-1.78939	-0.401252	0	
0.3307	-2.08516	-1.29817	0	
0.3313	-4.8358	-2.52553	0	
0.3320	-7.58643	-2.83237	0	
0.3327	-7.27588	-2.52553	0	
0.3333	-8.19275	-2.83237	0	
0.3340	-9.4054	-3.13921	0	
0.3347	-8.50331	-4.67341	0	
0.3353	-10.9434	-6.49085	0	
0.3360	-16.7404	-4.36657	0	
0.3367	-17.3468	-0.99133	0	
0.3373	-14.3003	-3.13921	0	
0.3380	-13.6792	-6.49085	0	
0.3387	-14.5961	-5.87717	0	
0.3393	-12.7624	-4.98025	0	
0.3400	-10.3223	-3.75289	0	
0.3407	-9.10963	-2.21869	0	
0.3413	-7.58643	-2.83237	0	
0.3420	-5.14635	-3.13921	0	
0.3427	-0.872513	-0.401252	0	
0.3433	3.40132	1.13295	0	
0.3440	4.62876	-0.0944123	0	
0.3447	4.62876	0.826108	0	
0.3453	6.75828	1.74663	0	
0.3460	7.37939	2.05347	0	
0.3467	4.92453	3.56407	0	
0.3473	5.8414	5.71195	0	
0.3480	8.28148	4.48459	0	
0.3487	7.67516	2.97399	0	
0.3493	7.06884	4.17775	0	
0.3500	8.28148	4.48459	0	
0.3507	6.46252	1.43979	0	
0.3513	4.02244	-0.99133	0	
0.3520	6.46252	-2.83237	0	
0.3527	7.37939	-3.75289	0	
0.3533	3.71188	-2.52553	0	
0.3540	2.18868	-1.29817	0	
0.3547	1.56757	-2.83237	0	
0.3553	-0.251402	-2.52553	0	
0.3560	-2.08516	0.826108	0	
0.3567	-3.00204	0.212428	0	
0.3573	-4.22947	-1.91185	0	
0.3580	-3.91892	0.212428	0	
0.3587	-3.31259	2.36031	0	
0.3593	-4.52524	-0.0944123	0	
0.3600	-5.14635	-1.29817	0	
0.3607	-3.60836	0.826108	0	
0.3613	-3.00204	1.74663	0	
0.3620	-4.52524	-0.99133	0	
0.3627	-4.52524	-2.52553	0	
0.3633	-2.69148	-1.91185	0	
0.3640	-3.60836	-0.99133	0	
0.3647	-4.8358	-0.0944123	0	
0.3653	-3.31259	0.519268	0	
0.3660	-3.60836	0.826108	0	
0.3667	-5.44212	0.826108	0	
0.3673	-3.91892	0.212428	0	
0.3680	-1.78939	-0.99133	0	
0.3687	-1.47884	-1.91185	0	
0.3693	-1.47884	-1.60501	0	
0.3700	-1.78939	-1.29817	0	
0.3707	-1.47884	-2.21869	0	
0.3713	1.87812	-0.99133	0	
0.3720	2.795	2.36031	0	
0.3727	1.56757	2.66715	0	
0.3733	1.2718	-0.99133	0	
0.3740	1.87812	-2.83237	0	
0.3747	1.87812	-0.99133	0	
0.3753	1.56757	-0.0944123	0	
0.3760	-1.47884	-2.21869	0	
0.3767	-5.14635	-3.44605	0	
0.3773	-5.44212	-1.91185	0	
0.3780	-4.22947	-0.401252	0	
0.3787	-2.39571	-0.99133	0	
0.3793	-0.251402	-0.99133	0	
0.3800	-1.78939	2.97399	0	
0.3807	-3.91892	6.32563	0	
0.3813	-2.39571	4.17775	0	
0.3820	-1.47884	0.826108	0	
0.3827	-2.08516	1.74663	0	
0.3833	-1.47884	3.28083	0	
0.3840	-0.251402	2.66715	0	
0.3847	-0.872513	1.74663	0	
0.3853	-2.69148	1.74663	0	
0.3860	-3.91892	1.13295	0	
0.3867	-2.69148	0.826108	0	
0.3873	-1.78939	1.74663	0	
0.3880	-3.60836	3.28083	0	
0.3887	-3.31259	1.43979	0	
0.3893	-0.872513	-0.708093	0	
0.3900	-1.78939	0.519268	0	
0.3907	-1.78939	0.519268	0	
0.3913	0.0443651	-2.21869	0	
0.3920	-2.08516	-2.52553	0	
0.3927	-2.39571	-1.91185	0	
0.3933	2.18868	-3.75289	0	
0.3940	1.87812	-3.13921	0	
0.3947	0.665476	-2.83237	0	
0.3953	4.62876	-4.67341	0	
0.3960	5.23508	-3.75289	0	
0.3967	3.71188	-0.99133	0	
0.3973	8.28148	-3.13921	0	
0.3980	10.7364	-4.05973	0	
0.3987	6.46252	-1.91185	0	
0.3993	8.28148	-1.91185	0	
0.4000	13.4722	-2.21869	0	
0.4007	10.4258	0.826108	0	
0.4013	8.28148	1.13295	0	
0.4020	11.0321	-0.401252	0	
0.4027	9.19836	0.212428	0	
0.4033	5.8414	0.826108	0	
0.4040	6.15196	1.13295	0	
0.4047	4.62876	2.36031	0	
0.4053	2.795	1.13295	0	
0.4060	3.10556	-0.0944123	0	
0.4067	2.795	3.56407	0	
0.4073	0.665476	5.71195	0	
0.4080	-1.47884	1.74663	0	
0.4087	-4.52524	-1.91185	0	
0.4093	-6.04844	-1.91185	0	
0.4100	-2.69148	-2.83237	0	
0.4107	-2.08516	-3.75289	0	
0.4113	-5.14635	-3.75289	0	
0.4120	-5.44212	-6.18401	0	
0.4127	-3.60836	-7.41137	0	
0.4133	-4.52524	-3.75289	0	
0.4140	-4.8358	-3.13921	0	
0.4147	-2.08516	-5.57033	0	
0.4153	0.0443651	-4.98025	0	
0.4160	-1.78939	-3.75289	0	
0.4167	-2.39571	-4.05973	0	
0.4173	0.0443651	-1.60501	0	
0.4180	1.56757	1.13295	0	
0.4187	0.961244	-0.708093	0	
0.4193	0.665476	-0.0944123	0	
0.4200	1.2718	4.48459	0	
0.4207	0.961244	4.48459	0	
0.4213	-0.561958	1.13295	0	
0.4220	-1.16828	0.212428	0	
0.4227	0.0443651	-0.99133	0	
0.4233	0.961244	-1.60501	0	
0.4240	0.354921	-0.0944123	0	
0.4247	-0.872513	0.519268	0	
0.4253	-0.561958	-0.0944123	0	
0.4260	-0.561958	0.826108	0	
0.4267	0.0443651	2.36031	0	
0.4273	0.961244	3.56407	0	
0.4280	1.2718	6.32563	0	
0.4287	0.354921	6.32563	0	
0.4293	-0.251402	3.28083	0	
0.4300	1.2718	3.28083	0	
0.4307	3.10556	6.32563	0	
0.4313	3.40132	5.71195	0	
0.4320	3.71188	3.56407	0	
0.4327	4.62876	4.79143	0	
0.4333	2.795	6.93931	0	
0.4340	0.0443651	4.48459	0	
0.4347	-0.872513	-0.708093	0	
0.4353	-1.47884	-2.52553	0	
0.4360	-4.22947	-0.708093	0	
0.4367	-5.75267	0.212428	0	
0.4373	-7.27588	-1.91185	0	
0.4380	-11.5497	-2.52553	0	
0.4387	-15.2172	-0.99133	0	
0.4393	-14.5961	-1.91185	0	
0.4400	-14.9067	-4.05973	0	
0.4407	-17.6573	-3.75289	0	
0.4413	-16.4299	-1.91185	0	
0.4420	-12.4666	-2.52553	0	
0.4427	-10.9434	-1.60501	0	
0.4433	-10.0265	-0.0944123	0	
0.4440	-8.50331	-1.29817	0	
0.4447	-8.79908	-1.29817	0	
0.4453	-8.19275	0.519268	0	
0.4460	-3.91892	0.519268	0	
0.4467	2.18868	0.826108	0	
0.4473	7.98572	2.36031	0	
0.4480	11.6384	2.36031	0	
0.4487	10.1152	1.43979	0	
0.4493	7.67516	1.43979	0	
0.4500	9.81947	1.74663	0	
0.4507	12.8659	2.36031	0	
0.4513	11.3427	2.05347	0	
0.4520	8.59204	0.826108	0	
0.4527	8.9026	-0.0944123	0	
0.4533	8.9026	0.826108	0	
0.4540	4.62876	1.43979	0	
0.4547	0.961244	2.36031	0	
0.4553	1.87812	1.43979	0	
0.4560	0.961244	-0.99133	0	
0.4567	-2.69148	-2.83237	0	
0.4573	-3.91892	-4.36657	0	
0.4580	-4.22947	-5.87717	0	
0.4587	-5.44212	-4.98025	0	
0.4593	-3.91892	-3.44605	0	
0.4600	-1.16828	-3.75289	0	
0.4607	-2.69148	-3.75289	0	
0.4613	-2.69148	-2.83237	0	
0.4620	0.961244	-2.52553	0	
0.4627	2.795	-0.99133	0	
0.4633	2.795	0.519268	0	
0.4640	3.40132	0.212428	0	
0.4647	3.10556	1.43979	0	
0.4653	2.795	2.05347	0	
0.4660	4.92453	-0.0944123	0	
0.4667	6.75828	-0.0944123	0	
0.4673	8.9026	3.56407	0	
0.4680	11.949	2.66715	0	
0.4687	11.949	0.519268	0	
0.4693	9.19836	2.97399	0	
0.4700	9.19836	5.40511	0	
0.4707	8.9026	1.74663	0	
0.4713	4.62876	0.212428	0	
0.4720	0.961244	3.56407	0	
0.4727	-1.16828	2.66715	0	
0.4733	-3.31259	-0.99133	0	
0.4740	-6.04844	0.519268	0	
0.4747	-9.10963	1.74663	0	
0.4753	-10.6328	-3.44605	0	
0.4760	-10.6328	-4.67341	0	
0.4767	-10.9434	-0.99133	0	
0.4773	-10.9434	-2.52553	0	
0.4780	-9.71596	-5.87717	0	
0.4787	-10.9434	-4.05973	0	
0.4793	-12.7624	-0.401252	0	
0.4800	-10.9434	-0.99133	0	
0.4807	-9.71596	-2.83237	0	
0.4813	-11.2392	-1.60501	0	
0.4820	-10.6328	0.519268	0	
0.4827	-9.10963	1.43979	0	
0.4833	-9.4054	0.212428	0	
0.4840	-7.27588	-1.60501	0	
0.4847	-3.31259	-0.99133	0	
0.4853	-1.16828	1.13295	0	
0.4860	1.87812	2.66715	0	
0.4867	5.8414	2.97399	0	
0.4873	6.46252	4.48459	0	
0.4880	4.92453	5.09827	0	
0.4887	4.62876	2.97399	0	
0.4893	2.48445	2.66715	0	
0.4900	1.2718	2.05347	0	
0.4907	2.795	-1.60501	0	
0.4913	3.40132	-2.52553	0	
0.4920	5.54564	0.826108	0	
0.4927	9.81947	1.13295	0	
0.4933	8.28148	-0.99133	0	
0.4940	4.62876	-0.708093	0	
0.4947	5.54564	-0.401252	0	
0.4953	4.62876	-0.99133	0	
0.4960	-1.47884	0.519268	0	
0.4967	-4.52524	3.28083	0	
0.4973	-3.00204	3.56407	0	
0.4980	-2.08516	0.826108	0	
0.4987	0.665476	-0.99133	0	
0.4993	2.18868	1.43979	0	
0.5000	-0.561958	2.36031	0	
0.5007	0.0443651	-0.0944123	0	
0.5013	5.54564	-0.708093	0	
0.5020	7.98572	-1.29817	0	
0.5027	7.98572	-3.13921	0	
0.5033	10.1152	-0.708093	0	
0.5040	10.7364	2.97399	0	
0.5047	9.19836	0.826108	0	
0.5053	9.19836	0.826108	0	
0.5060	9.19836	6.32563	0	
0.5067	6.46252	6.32563	0	
0.5073	4.92453	1.74663	0	
0.5080	5.8414	0.826108	0	
0.5087	6.15196	1.13295	0	
0.5093	3.40132	0.826108	0	
0.5100	1.87812	0.826108	0	
0.5107	2.795	0.519268	0	
0.5113	2.48445	-0.401252	0	
0.5120	-3.00204	-2.21869	0	
0.5127	-6.359	-4.36657	0	
0.5133	-2.69148	-3.75289	0	
0.5140	1.56757	-2.21869	0	
0.5147	-1.16828	-4.36657	0	
0.5153	-4.22947	-7.10453	0	
0.5160	-2.08516	-6.18401	0	
0.5167	-0.872513	-5.57033	0	
0.5173	-2.39571	-7.41137	0	
0.5180	-1.47884	-7.41137	0	
0.5187	0.665476	-5.87717	0	
0.5193	-1.16828	-3.44605	0	
0.5200	-3.31259	-2.52553	0	
0.5207	-2.69148	-4.05973	0	
0.5213	-2.39571	-3.75289	0	
0.5220	-3.31259	-1.60501	0	
0.5227	-3.91892	-2.83237	0	
0.5233	-3.31259	-4.67341	0	
0.5240	-1.16828	-3.75289	0	
0.5247	-0.872513	-3.75289	0	
0.5253	-2.69148	-3.75289	0	
0.5260	-2.69148	-0.401252	0	
0.5267	-0.561958	2.66715	0	
0.5273	-0.872513	4.17775	0	
0.5280	-3.00204	4.48459	0	
0.5287	-2.69148	3.28083	0	
0.5293	0.0443651	0.826108	0	
0.5300	1.87812	-1.29817	0	
0.5307	0.0443651	-3.75289	0	
0.5313	-2.39571	-3.75289	0	
0.5320	-1.16828	-2.83237	0	
0.5327	0.665476	-3.75289	0	
0.5333	0.0443651	-3.13921	0	
0.5340	1.2718	-0.401252	0	
0.5347	4.02244	-1.29817	0	
0.5353	3.71188	-4.05973	0	
0.5360	1.56757	-4.05973	0	
0.5367	1.87812	-3.75289	0	
0.5373	1.87812	-2.83237	0	
0.5380	0.665476	-1.60501	0	
0.5387	1.2718	-1.91185	0	
0.5393	3.10556	-0.99133	0	
0.5400	3.71188	2.05347	0	
0.5407	2.18868	4.17775	0	
0.5413	0.961244	2.66715	0	
0.5420	2.18868	1.13295	0	
0.5427	4.62876	2.66715	0	
0.5433	5.54564	4.17775	0	
0.5440	3.71188	1.43979	0	
0.5447	2.795	-0.0944123	0	
0.5453	1.2718	3.56407	0	
0.5460	-1.16828	6.32563	0	
0.5467	-3.91892	6.01879	0	
0.5473	-6.96532	7.24615	0	
0.5480	-9.4054	8.14306	0	
0.5487	-9.10963	6.01879	0	
0.5493	-7.27588	3.87091	0	
0.5500	-7.8822	3.28083	0	
0.5507	-10.3223	2.05347	0	
0.5513	-10.9434	2.05347	0	
0.5520	-8.79908	2.05347	0	
0.5527	-7.58643	1.74663	0	
0.5533	-7.27588	0.519268	0	
0.5540	-5.44212	-1.91185	0	
0.5547	-2.08516	-3.75289	0	
0.5553	0.0443651	-4.67341	0	
0.5560	1.2718	-5.57033	0	
0.5567	2.48445	-4.05973	0	
0.5573	2.795	-2.52553	0	
0.5580	3.71188	-2.83237	0	
0.5587	3.71188	-2.83237	0	
0.5593	3.71188	-1.29817	0	
0.5600	3.71188	-0.99133	0	
0.5607	1.56757	-0.99133	0	
0.5613	-3.60836	-0.99133	0	
0.5620	-4.52524	-2.21869	0	
0.5627	-3.00204	-2.21869	0	
0.5633	-2.69148	1.13295	0	
0.5640	-0.872513	5.09827	0	
0.5647	3.10556	5.40511	0	
0.5653	5.8414	5.71195	0	
0.5660	5.8414	7.55299	0	
0.5667	5.8414	6.93931	0	
0.5673	5.23508	4.17775	0	
0.5680	3.40132	4.48459	0	
0.5687	2.795	6.01879	0	
0.5693	2.795	4.79143	0	
0.5700	0.0443651	4.48459	0	
0.5707	-2.69148	5.09827	0	
0.5713	-2.69148	2.66715	0	
0.5720	-1.78939	-0.401252	0	
0.5727	-0.872513	-0.0944123	0	
0.5733	-0.251402	1.13295	0	
0.5740	0.665476	-1.29817	0	
0.5747	0.961244	-4.36657	0	
0.5753	1.2718	-4.36657	0	
0.5760	0.665476	-2.52553	0	
0.5767	-1.78939	-3.44605	0	
0.5773	-2.69148	-5.57033	0	
0.5780	-1.47884	-5.87717	0	
0.5787	-0.251402	-4.98025	0	
0.5793	0.0443651	-4.98025	0	
0.5800	0.0443651	-4.36657	0	
0.5807	-2.69148	-3.44605	0	
0.5813	-2.69148	-1.91185	0	
0.5820	2.795	-0.0944123	0	
0.5827	4.02244	0.212428	0	
0.5833	-0.872513	-0.99133	0	
0.5840	-3.60836	-0.99133	0	
0.5847	-2.69148	-0.708093	0	
0.5853	-2.39571	-0.0944123	0	
0.5860	-0.251402	1.74663	0	
0.5867	3.10556	3.87091	0	
0.5873	4.62876	4.48459	0	
0.5880	4.62876	4.48459	0	
0.5887	3.71188	2.05347	0	
0.5893	1.87812	-0.0944123	0	
0.5900	2.18868	0.519268	0	
0.5907	5.23508	0.212428	0	
0.5913	4.62876	-0.99133	0	
0.5920	2.795	-0.99133	0	
0.5927	4.62876	-1.91185	0	
0.5933	6.75828	-3.13921	0	
0.5940	5.23508	-1.91185	0	
0.5947	4.62876	-0.708093	0	
0.5953	5.23508	-2.83237	0	
0.5960	3.10556	-4.67341	0	
0.5967	2.48445	-4.67341	0	
0.5973	3.40132	-2.83237	0	
0.5980	2.795	-0.401252	0	
0.5987	0.665476	-0.708093	0	
0.5993	0.665476	-0.0944123	0	
0.6000	1.87812	2.66715	0	
0.6007	2.795	2.66715	0	
0.6013	3.40132	-0.0944123	0	
0.6020	1.87812	0.519268	0	
0.6027	0.665476	1.74663	0	
0.6033	1.87812	-0.0944123	0	
0.6040	2.48445	0.212428	0	
0.6047	0.961244	1.74663	0	
0.6053	-0.872513	0.826108	0	
0.6060	-1.78939	0.519268	0	
0.6067	-1.78939	2.05347	0	
0.6073	-2.69148	2.66715	0	
0.6080	-5.14635	1.74663	0	
0.6087	-5.44212	0.826108	0	
0.6093	-3.91892	-0.99133	0	
0.6100	-5.44212	-2.52553	0	
0.6107	-8.79908	-1.60501	0	
0.6113	-8.50331	0.519268	0	
0.6120	-6.66955	0.519268	0	
0.6127	-6.359	-3.75289	0	
0.6133	-5.14635	-6.79769	0	
0.6140	-4.22947	-4.67341	0	
0.6147	-5.14635	-0.99133	0	
0.6153	-5.44212	-1.91185	0	
0.6160	-2.69148	-5.26349	0	
0.6167	0.0443651	-6.79769	0	
0.6173	0.0443651	-7.10453	0	
0.6180	-2.69148	-7.41137	0	
0.6187	-3.60836	-6.49085	0	
0.6193	-2.08516	-4.98025	0	
0.6200	-0.872513	-3.75289	0	
0.6207	-0.872513	-2.83237	0	
0.6213	0.961244	-3.13921	0	
0.6220	3.71188	-3.13921	0	
0.6227	4.62876	-1.60501	0	
0.6233	2.18868	-0.708093	0	
0.6240	-0.872513	-1.29817	0	
0.6247	-0.872513	-3.13921	0	
0.6253	0.665476	-4.67341	0	
0.6260	0.961244	-3.13921	0	
0.6267	2.48445	0.212428	0	
0.6273	3.71188	-1.29817	0	
0.6280	2.795	-3.75289	0	
0.6287	3.10556	-2.83237	0	
0.6293	4.62876	-4.36657	0	
0.6300	3.40132	-6.18401	0	
0.6307	1.87812	-1.91185	0	
0.6313	2.48445	2.66715	0	
0.6320	1.87812	1.74663	0	
0.6327	0.0443651	2.36031	0	
0.6333	2.18868	3.56407	0	
0.6340	5.23508	2.05347	0	
0.6347	4.3182	1.13295	0	
0.6353	0.665476	1.43979	0	
0.6360	-2.39571	-0.401252	0	
0.6367	-3.31259	-2.21869	0	
0.6373	-3.00204	-0.708093	0	
0.6380	-3.60836	1.74663	0	
0.6387	-5.75267	0.826108	0	
0.6393	-6.96532	-0.0944123	0	
0.6400	-4.52524	1.74663	0	
0.6407	-2.39571	2.05347	0	
0.6413	-4.8358	0.826108	0	
0.6420	-6.359	2.36031	0	
0.6427	-4.52524	3.28083	0	
0.6433	-5.14635	1.43979	0	
0.6440	-9.10963	2.05347	0	
0.6447	-8.19275	3.56407	0	
0.6453	-5.75267	3.28083	0	
0.6460	-6.359	3.87091	0	
0.6467	-7.8822	5.40511	0	
0.6473	-10.6328	4.48459	0	
0.6480	-15.513	4.48459	0	
0.6487	-17.3468	4.48459	0	
0.6493	-16.1193	2.36031	0	
0.6500	-15.8235	1.74663	0	
0.6507	-15.513	1.74663	0	
0.6513	-15.513	-1.60501	0	
0.6520	-17.3468	-3.13921	0	
0.6527	-15.513	-2.83237	0	
0.6533	-9.10963	-4.05973	0	
0.6540	-2.69148	-5.57033	0	
0.6547	1.87812	-5.57033	0	
0.6553	5.54564	-5.87717	0	
0.6560	8.9026	-6.79769	0	
0.6567	10.1152	-8.33189	0	
0.6573	8.9026	-8.63873	0	
0.6580	8.28148	-4.05973	0	
0.6587	7.37939	-0.401252	0	
0.6593	6.46252	-2.83237	0	
0.6600	9.19836	-3.75289	0	
0.6607	13.4722	1.74663	0	
0.6613	13.1764	4.48459	0	
0.6620	12.8659	2.97399	0	
0.6627	12.8659	5.09827	0	
0.6633	9.19836	8.75674	0	
0.6640	5.23508	9.06358	0	
0.6647	5.54564	7.55299	0	
0.6653	6.15196	6.93931	0	
0.6660	6.46252	7.83622	0	
0.6667	5.54564	9.98411	0	
0.6673	2.48445	7.24615	0	
0.6680	0.0443651	3.28083	0	
0.6687	0.961244	4.79143	0	
0.6693	2.48445	6.63247	0	
0.6700	3.71188	4.17775	0	
0.6707	4.62876	3.28083	0	
0.6713	4.92453	3.56407	0	
0.6720	6.75828	1.74663	0	
0.6727	9.19836	-0.0944123	0	
0.6733	11.3427	-1.29817	0	
0.6740	12.8659	-2.21869	0	
0.6747	11.0321	-0.0944123	0	
0.6753	5.8414	-0.401252	0	
0.6760	1.87812	-4.98025	0	
0.6767	-0.561958	-6.49085	0	
0.6773	-2.69148	-4.98025	0	
0.6780	-4.52524	-5.26349	0	
0.6787	-5.44212	-3.75289	0	
0.6793	-5.75267	-0.708093	0	
0.6800	-5.75267	-0.708093	0	
0.6807	-5.44212	-0.99133	0	
0.6813	-3.91892	-1.60501	0	
0.6820	-4.52524	-3.75289	0	
0.6827	-7.27588	-2.21869	0	
0.6833	-5.75267	-0.0944123	0	
0.6840	-0.872513	-1.29817	0	
0.6847	0.354921	-0.0944123	0	
0.6853	0.354921	3.28083	0	
0.6860	3.71188	0.519268	0	
0.6867	6.46252	-0.401252	0	
0.6873	6.46252	2.66715	0	
0.6880	6.46252	-0.0944123	0	
0.6887	7.06884	-2.52553	0	
0.6893	5.23508	1.74663	0	
0.6900	0.354921	2.05347	0	
0.6907	-3.00204	-0.401252	0	
0.6913	-2.08516	2.66715	0	
0.6920	-1.78939	3.87091	0	
0.6927	-4.52524	0.519268	0	
0.6933	-3.60836	0.212428	0	
0.6940	1.87812	0.519268	0	
0.6947	2.795	-1.29817	0	
0.6953	-1.47884	-0.401252	0	
0.6960	-1.78939	1.74663	0	
0.6967	0.961244	-0.0944123	0	
0.6973	-0.561958	-1.91185	0	
0.6980	-2.69148	-0.99133	0	
0.6987	0.0443651	-0.0944123	0	
0.6993	2.795	-0.0944123	0	
0.7000	3.10556	-0.0944123	0	
0.7007	4.62876	0.212428	0	
0.7013	5.8414	1.43979	0	
0.7020	4.92453	2.66715	0	
0.7027	4.62876	3.28083	0	
0.7033	6.46252	2.36031	0	
0.7040	7.37939	1.43979	0	
0.7047	5.8414	2.05347	0	
0.7053	4.62876	2.66715	0	
0.7060	3.71188	2.36031	0	
0.7067	4.62876	3.28083	0	
0.7073	6.46252	4.48459	0	
0.7080	7.98572	5.71195	0	
0.7087	7.98572	6.32563	0	
0.7093	8.59204	3.56407	0	
0.7100	8.28148	0.826108	0	
0.7107	2.48445	1.74663	0	
0.7113	-1.78939	2.66715	0	
0.7120	0.354921	1.13295	0	
0.7127	-0.251402	1.43979	0	
0.7133	-5.44212	3.28083	0	
0.7140	-4.52524	3.56407	0	
0.7147	-1.78939	3.56407	0	
0.7153	-4.8358	2.66715	0	
0.7160	-6.96532	1.13295	0	
0.7167	-7.8822	-0.0944123	0	
0.7173	-10.9434	-0.99133	0	
0.7180	-10.6328	-0.0944123	0	
0.7187	-8.19275	0.826108	0	
0.7193	-9.71596	-1.60501	0	
0.7200	-9.4054	-2.21869	0	
0.7207	-6.96532	0.826108	0	
0.7213	-8.19275	-0.0944123	0	
0.7220	-7.58643	-2.52553	0	
0.7227	-3.91892	-0.401252	0	
0.7233	-5.44212	1.13295	0	
0.7240	-7.8822	0.826108	0	
0.7247	-4.22947	2.66715	0	
0.7253	-0.872513	2.05347	0	
0.7260	-2.69148	-0.99133	0	
0.7267	-3.60836	-0.708093	0	
0.7273	-1.78939	-0.0944123	0	
0.7280	0.0443651	-2.52553	0	
0.7287	0.665476	-1.91185	0	
0.7293	1.56757	0.212428	0	
0.7300	2.48445	-0.0944123	0	
0.7307	3.10556	-0.708093	0	
0.7313	2.795	0.212428	0	
0.7320	0.961244	-0.401252	0	
0.7327	0.354921	-1.91185	0	
0.7333	1.87812	-1.60501	0	
0.7340	-0.872513	0.826108	0	
0.7347	-6.359	1.13295	0	
0.7353	-9.10963	-2.83237	0	
0.7360	-10.9434	-5.57033	0	
0.7367	-11.2392	-4.67341	0	
0.7373	-10.0265	-4.05973	0	
0.7380	-11.2392	-4.67341	0	
0.7387	-14.5961	-3.75289	0	
0.7393	-14.3003	-2.83237	0	
0.7400	-12.7624	-1.60501	0	
0.7407	-13.3835	2.05347	0	
0.7413	-10.0265	3.87091	0	
0.7420	-6.359	0.826108	0	
0.7427	-6.66955	-1.91185	0	
0.7433	-7.8822	-0.0944123	0	
0.7440	-7.27588	-0.0944123	0	
0.7447	-3.60836	-3.75289	0	
0.7453	2.18868	-4.98025	0	
0.7460	4.92453	-2.83237	0	
0.7467	4.62876	-1.91185	0	
0.7473	6.75828	-1.91185	0	
0.7480	11.0321	0.826108	0	
0.7487	13.1764	1.74663	0	
0.7493	15.9123	-1.91185	0	
0.7500	17.1397	-2.83237	0	
0.7507	16.2228	-1.60501	0	
0.7513	16.8292	-1.60501	0	
0.7520	18.0566	-1.29817	0	
0.7527	16.2228	0.826108	0	
0.7533	14.3891	2.66715	0	
0.7540	13.4722	1.74663	0	
0.7547	11.0321	-0.0944123	0	
0.7553	7.67516	0.826108	0	
0.7560	7.06884	1.43979	0	
0.7567	11.0321	-0.401252	0	
0.7573	13.1764	-1.29817	0	
0.7580	8.9026	-1.60501	0	
0.7587	5.23508	-4.36657	0	
0.7593	5.23508	-4.67341	0	
0.7600	4.62876	-1.29817	0	
0.7607	4.62876	-1.29817	0	
0.7613	4.3182	-4.05973	0	
0.7620	-0.251402	-3.75289	0	
0.7627	-2.69148	-2.52553	0	
0.7633	0.961244	-1.60501	0	
0.7640	2.18868	0.212428	0	
0.7647	0.354921	1.13295	0	
0.7653	2.18868	1.74663	0	
0.7660	4.62876	3.56407	0	
0.7667	3.71188	4.17775	0	
0.7673	2.18868	2.97399	0	
0.7680	0.961244	3.87091	0	
0.7687	-1.16828	4.48459	0	
0.7693	-6.04844	2.05347	0	
0.7700	-10.9434	-1.29817	0	
0.7707	-10.9434	-2.83237	0	
0.7713	-10.6328	-2.52553	0	
0.7720	-14.9067	-3.75289	0	
0.7727	-17.0362	-5.57033	0	
0.7733	-16.1193	-4.67341	0	
0.7740	-17.3468	-2.83237	0	
0.7747	-18.2636	-3.75289	0	
0.7753	-17.3468	-3.75289	0	
0.7760	-15.513	-1.91185	0	
0.7767	-13.6792	-3.44605	0	
0.7773	-11.2392	-5.57033	0	
0.7780	-8.19275	-3.44605	0	
0.7787	-3.60836	-1.91185	0	
0.7793	-0.561958	-4.05973	0	
0.7800	2.18868	-5.57033	0	
0.7807	8.28148	-3.75289	0	
0.7813	11.949	-1.91185	0	
0.7820	11.6384	-1.60501	0	
0.7827	12.5553	-1.91185	0	
0.7833	15.6165	-0.99133	0	
0.7840	16.8292	3.56407	0	
0.7847	17.746	7.24615	0	
0.7853	17.4503	6.32563	0	
0.7860	15.9123	3.28083	0	
0.7867	14.6996	0.826108	0	
0.7873	12.8659	0.826108	0	
0.7880	10.1152	1.43979	0	
0.7887	7.67516	0.212428	0	
0.7893	5.8414	-0.0944123	0	
0.7900	2.795	1.74663	0	
0.7907	-0.872513	0.826108	0	
0.7913	-2.08516	-1.60501	0	
0.7920	-0.872513	-0.99133	0	
0.7927	0.0443651	0.826108	0	
0.7933	-2.08516	0.519268	0	
0.7940	-4.8358	-0.0944123	0	
0.7947	-6.66955	-0.99133	0	
0.7953	-8.50331	-3.44605	0	
0.7960	-10.6328	-3.75289	0	
0.7967	-12.4666	-3.75289	0	
0.7973	-14.5961	-5.26349	0	
0.7980	-15.513	-5.57033	0	
0.7987	-17.3468	-4.98025	0	
0.7993	-18.2636	-4.67341	0	
0.8000	-18.5742	-3.13921	0	
0.8007	-19.1805	-1.29817	0	
0.8013	-20.3932	-0.99133	0	
0.8020	-19.1805	-1.91185	0	
0.8027	-15.2172	-2.83237	0	
0.8033	-12.7624	-2.83237	0	
0.8040	-10.9434	-0.708093	0	
0.8047	-6.359	0.826108	0	
0.8053	-1.47884	-1.29817	0	
0.8060	1.87812	-2.52553	0	
0.8067	6.15196	0.519268	0	
0.8073	11.6384	1.13295	0	
0.8080	14.3891	-1.91185	0	
0.8087	14.9954	-2.83237	0	
0.8093	16.8292	-1.91185	0	
0.8100	17.1397	-3.75289	0	
0.8107	13.7828	-3.44605	0	
0.8113	9.19836	-1.91185	0	
0.8120	4.02244	-4.05973	0	
0.8127	0.0443651	-5.57033	0	
0.8133	-0.561958	-3.75289	0	
0.8140	0.0443651	-4.05973	0	
0.8147	-0.872513	-4.67341	0	
0.8153	-1.16828	-1.60501	0	
0.8160	-1.78939	-0.99133	0	
0.8167	-4.52524	-4.67341	0	
0.8173	-7.8822	-5.57033	0	
0.8180	-6.66955	-3.75289	0	
0.8187	-3.91892	-2.83237	0	
0.8193	-3.31259	-0.99133	0	
0.8200	-3.60836	-0.0944123	0	
0.8207	-3.31259	-0.0944123	0	
0.8213	-1.78939	0.826108	0	
0.8220	0.665476	2.36031	0	
0.8227	1.87812	3.28083	0	
0.8233	2.18868	2.66715	0	
0.8240	4.3182	0.826108	0	
0.8247	6.46252	1.74663	0	
0.8253	5.54564	4.79143	0	
0.8260	3.71188	6.32563	0	
0.8267	2.795	7.83622	0	
0.8273	5.8414	9.06358	0	
0.8280	9.19836	8.4499	0	
0.8287	7.06884	7.24615	0	
0.8293	3.71188	6.01879	0	
0.8300	4.3182	5.09827	0	
0.8307	4.02244	5.71195	0	
0.8313	1.87812	5.40511	0	
0.8320	0.665476	2.66715	0	
0.8327	0.665476	-0.0944123	0	
0.8333	1.87812	-0.401252	0	
0.8340	2.48445	-0.0944123	0	
0.8347	0.0443651	0.826108	0	
0.8353	-4.52524	0.519268	0	
0.8360	-6.96532	-0.401252	0	
0.8367	-8.50331	0.826108	0	
0.8373	-10.0265	1.74663	0	
0.8380	-9.10963	0.826108	0	
0.8387	-6.96532	0.826108	0	
0.8393	-6.359	2.66715	0	
0.8400	-6.66955	1.74663	0	
0.8407	-6.359	-1.60501	0	
0.8413	-6.359	-2.52553	0	
0.8420	-6.66955	-0.99133	0	
0.8427	-5.75267	-0.708093	0	
0.8433	-6.04844	-1.29817	0	
0.8440	-6.359	-0.0944123	0	
0.8447	-5.14635	1.43979	0	
0.8453	-2.69148	-0.708093	0	
0.8460	0.665476	-1.91185	0	
0.8467	3.71188	1.13295	0	
0.8473	3.71188	2.36031	0	
0.8480	2.48445	0.826108	0	
0.8487	5.54564	1.43979	0	
0.8493	8.9026	4.48459	0	
0.8500	6.46252	3.87091	0	
0.8507	3.40132	1.13295	0	
0.8513	3.40132	1.13295	0	
0.8520	2.795	1.74663	0	
0.8527	0.0443651	-0.0944123	0	
0.8533	-3.91892	-1.29817	0	
0.8540	-6.359	-0.99133	0	
0.8547	-4.52524	-2.21869	0	
0.8553	-2.39571	-4.05973	0	
0.8560	-4.52524	-4.36657	0	
0.8567	-6.359	-4.67341	0	
0.8573	-5.75267	-4.98025	0	
0.8580	-7.8822	-3.75289	0	
0.8587	-10.6328	-3.75289	0	
0.8593	-9.4054	-3.75289	0	
0.8600	-7.8822	-1.91185	0	
0.8607	-7.58643	-3.13921	0	
0.8613	-6.359	-6.18401	0	
0.8620	-5.44212	-5.57033	0	
0.8627	-6.04844	-3.75289	0	
0.8633	-5.75267	-3.75289	0	
0.8640	-5.14635	-3.44605	0	
0.8647	-6.04844	-2.83237	0	
0.8653	-5.14635	-4.05973	0	
0.8660	2.795	-4.05973	0	
0.8667	10.1152	0.212428	0	
0.8673	13.1764	4.48459	0	
0.8680	15.6165	5.09827	0	
0.8687	16.8292	3.56407	0	
0.8693	14.3891	3.56407	0	
0.8700	15.306	6.63247	0	
0.8707	18.0566	9.06358	0	
0.8713	14.0933	6.01879	0	
0.8720	11.3427	3.87091	0	
0.8727	15.6165	6.93931	0	
0.8733	14.6996	7.24615	0	
0.8740	10.1152	3.56407	0	
0.8747	10.1152	1.13295	0	
0.8753	6.46252	1.13295	0	
0.8760	-1.16828	2.05347	0	
0.8767	-1.47884	1.43979	0	
0.8773	0.0443651	-3.75289	0	
0.8780	-3.31259	-6.49085	0	
0.8787	-3.31259	-5.26349	0	
0.8793	-1.16828	-3.75289	0	
0.8800	-3.91892	-3.75289	0	
0.8807	-6.66955	-2.83237	0	
0.8813	-5.44212	-1.91185	0	
0.8820	-3.00204	-1.91185	0	
0.8827	-2.08516	-1.29817	0	
0.8833	-3.60836	-0.99133	0	
0.8840	-3.60836	0.519268	0	
0.8847	-0.251402	2.36031	0	
0.8853	2.18868	1.13295	0	
0.8860	0.354921	0.826108	0	
0.8867	-1.47884	4.48459	0	
0.8873	-0.872513	6.32563	0	
0.8880	1.56757	2.97399	0	
0.8887	3.40132	0.519268	0	
0.8893	3.10556	2.05347	0	
0.8900	1.87812	2.97399	0	
0.8907	0.961244	-0.401252	0	
0.8913	0.354921	-2.83237	0	
0.8920	0.0443651	1.13295	0	
0.8927	0.354921	3.87091	0	
0.8933	-0.872513	0.519268	0	
0.8940	-3.31259	-2.52553	0	
0.8947	-5.75267	-1.29817	0	
0.8953	-10.3223	-1.60501	0	
0.8960	-14.3003	-3.75289	0	
0.8967	-12.7624	-3.75289	0	
0.8973	-10.9434	-3.44605	0	
0.8980	-10.0265	-4.36657	0	
0.8987	-6.359	-4.36657	0	
0.8993	-4.22947	-2.52553	0	
0.9000	-6.66955	-1.91185	0	
0.9007	-6.359	-1.91185	0	
0.9013	-2.69148	-0.401252	0	
0.9020	-2.69148	-0.401252	0	
0.9027	-4.22947	-1.29817	0	
0.9033	-2.69148	1.74663	0	
0.9040	-1.78939	2.66715	0	
0.9047	-0.872513	-2.83237	0	
0.9053	2.18868	-4.67341	0	
0.9060	5.54564	0.826108	0	
0.9067	7.67516	3.56407	0	
0.9073	7.98572	1.74663	0	
0.9080	7.06884	2.66715	0	
0.9087	6.75828	4.79143	0	
0.9093	6.46252	5.40511	0	
0.9100	5.23508	5.40511	0	
0.9107	3.71188	5.40511	0	
0.9113	2.795	6.01879	0	
0.9120	0.961244	6.63247	0	
0.9127	-0.561958	5.71195	0	
0.9133	-2.39571	4.48459	0	
0.9140	-4.22947	4.79143	0	
0.9147	-4.52524	3.28083	0	
0.9153	-6.04844	1.13295	0	
0.9160	-9.10963	0.826108	0	
0.9167	-10.6328	-0.99133	0	
0.9173	-10.3223	-2.83237	0	
0.9180	-11.2392	-1.29817	0	
0.9187	-10.9434	-0.401252	0	
0.9193	-8.19275	-0.99133	0	
0.9200	-8.19275	0.212428	0	
0.9207	-9.10963	-0.99133	0	
0.9213	-5.44212	-3.13921	0	
0.9220	0.0443651	-0.99133	0	
0.9227	3.40132	-0.0944123	0	
0.9233	5.8414	-2.21869	0	
0.9240	7.98572	-0.708093	0	
0.9247	8.28148	2.05347	0	
0.9253	9.19836	1.43979	0	
0.9260	11.0321	1.74663	0	
0.9267	11.0321	4.79143	0	
0.9273	9.50892	5.09827	0	
0.9280	9.50892	3.56407	0	
0.9287	10.1152	3.56407	0	
0.9293	7.98572	4.17775	0	
0.9300	4.3182	2.97399	0	
0.9307	2.795	0.826108	0	
0.9313	3.10556	0.519268	0	
0.9320	2.795	1.43979	0	
0.9327	0.665476	-0.708093	0	
0.9333	-0.251402	-2.83237	0	
0.9340	0.354921	-3.75289	0	
0.9347	-0.561958	-6.49085	0	
0.9353	-1.47884	-6.79769	0	
0.9360	-0.251402	-3.13921	0	
0.9367	-0.872513	-2.83237	0	
0.9373	-2.69148	-4.98025	0	
0.9380	-0.872513	-2.52553	0	
0.9387	1.87812	0.826108	0	
0.9393	0.961244	0.826108	0	
0.9400	-0.561958	0.826108	0	
0.9407	0.961244	-0.401252	0	
0.9413	3.40132	-4.05973	0	
0.9420	7.06884	-2.52553	0	
0.9427	9.19836	4.48459	0	
0.9433	8.9026	5.40511	0	
0.9440	8.59204	0.826108	0	
0.9447	8.28148	-0.401252	0	
0.9453	6.46252	0.826108	0	
0.9460	5.23508	1.13295	0	
0.9467	5.54564	2.97399	0	
0.9473	6.15196	3.87091	0	
0.9480	7.37939	0.826108	0	
0.9487	6.46252	-0.0944123	0	
0.9493	2.795	4.48459	0	
0.9500	-0.872513	6.93931	0	
0.9507	-3.31259	2.97399	0	
0.9513	-5.14635	0.212428	0	
0.9520	-4.8358	0.826108	0	
0.9527	-4.52524	-0.0944123	0	
0.9533	-6.359	-1.91185	0	
0.9540	-8.19275	-1.29817	0	
0.9547	-8.50331	-0.401252	0	
0.9553	-9.10963	-1.29817	0	
0.9560	-8.79908	-2.83237	0	
0.9567	-9.10963	-4.05973	0	
0.9573	-10.9434	-5.57033	0	
0.9580	-10.9434	-4.67341	0	
0.9587	-8.50331	-3.75289	0	
0.9593	-8.19275	-4.98025	0	
0.9600	-8.79908	-5.26349	0	
0.9607	-9.4054	-2.83237	0	
0.9613	-10.0265	-2.21869	0	
0.9620	-7.27588	-2.83237	0	
0.9627	-5.14635	-1.91185	0	
0.9633	-6.04844	-2.52553	0	
0.9640	-4.52524	-4.05973	0	
0.9647	-1.78939	-1.91185	0	
0.9653	-1.78939	2.05347	0	
0.9660	-0.561958	1.74663	0	
0.9667	-0.872513	-2.21869	0	
0.9673	-3.31259	-6.49085	0	
0.9680	-1.78939	-8.63873	0	
0.9687	0.0443651	-4.98025	0	
0.9693	-1.47884	-1.60501	0	
0.9700	0.0443651	-3.44605	0	
0.9707	2.795	-4.98025	0	
0.9713	2.795	-1.91185	0	
0.9720	3.40132	1.74663	0	
0.9727	3.71188	-0.0944123	0	
0.9733	2.795	-2.21869	0	
0.9740	3.71188	-2.83237	0	
0.9747	3.40132	-5.26349	0	
0.9753	-0.561958	-7.71821	0	
0.9760	-2.39571	-5.57033	0	
0.9767	-0.872513	-4.05973	0	
0.9773	-0.251402	-6.79769	0	
0.9780	-0.872513	-4.67341	0	
0.9787	-1.78939	0.519268	0	
0.9793	-2.39571	-1.29817	0	
0.9800	-0.872513	-4.67341	0	
0.9807	0.665476	-3.44605	0	
0.9813	0.961244	-1.91185	0	
0.9820	0.961244	-0.401252	0	
0.9827	-1.78939	2.97399	0	
0.9833	-2.69148	2.97399	0	
0.9840	-0.251402	-0.99133	0	
0.9847	-1.47884	-1.29817	0	
0.9853	-5.75267	1.13295	0	
0.9860	-3.91892	0.826108	0	
0.9867	0.0443651	0.826108	0	
0.9873	-1.16828	2.66715	0	
0.9880	-2.69148	3.28083	0	
0.9887	-2.39571	1.74663	0	
0.9893	-3.31259	0.519268	0	
0.9900	-3.60836	-0.401252	0	
0.9907	-1.78939	-0.401252	0	
0.9913	-1.47884	-0.0944123	0	
0.9920	-0.251402	-1.91185	0	
0.9927	1.2718	-4.67341	0	
0.9933	0.961244	-4.36657	0	
0.9940	1.87812	-1.91185	0	
0.9947	3.10556	-1.91185	0	
0.9953	2.795	-4.67341	0	
0.9960	2.795	-7.41137	0	
0.9967	3.10556	-6.79769	0	
0.9973	1.56757	-6.79769	0	
0.9980	1.56757	-7.41137	0	
0.9987	4.02244	-4.05973	0	
0.9993	2.795	-0.708093	0	
1.0000	0.354921	-1.91185	0	
1.0007	2.48445	-3.75289	0	
1.0013	6.46252	-2.83237	0	
1.0020	8.28148	-1.29817	0	
1.0027	6.46252	-0.708093	0	
1.0033	3.40132	-0.0944123	0	
1.0040	0.961244	-0.401252	0	
1.0047	0.665476	-0.708093	0	
1.0053	2.18868	0.519268	0	
1.0060	3.40132	1.13295	0	
1.0067	2.795	1.74663	0	
1.0073	3.71188	3.87091	0	
1.0080	5.23508	5.40511	0	
1.0087	3.71188	3.56407	0	
1.0093	3.71188	2.66715	0	
1.0100	6.46252	4.48459	0	
1.0107	5.23508	4.48459	0	
1.0113	3.71188	1.43979	0	
1.0120	7.37939	0.212428	0	
1.0127	7.06884	2.05347	0	
1.0133	1.87812	2.97399	0	
1.0140	0.665476	2.05347	0	
1.0147	0.961244	0.519268	0	
1.0153	-0.872513	-0.0944123	0	
1.0160	-0.251402	1.74663	0	
1.0167	-0.251402	0.826108	0	
1.0173	-2.69148	-3.75289	0	
1.0180	-3.60836	-3.75289	0	
1.0187	-2.69148	0.212428	0	
1.0193	-0.872513	0.212428	0	
1.0200	2.795	-0.401252	0	
1.0207	4.62876	2.66715	0	
1.0213	4.02244	2.66715	0	
1.0220	4.92453	-1.29817	0	
1.0227	4.3182	-0.99133	0	
1.0233	1.87812	3.28083	0	
1.0240	1.87812	3.28083	0	
1.0247	2.795	1.74663	0	
1.0253	1.56757	3.87091	0	
1.0260	0.0443651	4.17775	0	
1.0267	0.961244	1.74663	0	
1.0273	2.795	3.28083	0	
1.0280	3.40132	5.40511	0	
1.0287	1.56757	2.36031	0	
1.0293	1.2718	0.826108	0	
1.0300	2.795	2.97399	0	
1.0307	-0.251402	2.66715	0	
1.0313	-3.00204	-0.0944123	0	
1.0320	-1.78939	-1.29817	0	
1.0327	-2.69148	-2.21869	0	
1.0333	-5.75267	-1.91185	0	
1.0340	-7.58643	-1.60501	0	
1.0347	-10.0265	-3.75289	0	
1.0353	-12.156	-3.75289	0	
1.0360	-11.8603	-3.13921	0	
1.0367	-12.7624	-5.87717	0	
1.0373	-13.6792	-6.49085	0	
1.0380	-11.2392	-3.13921	0	
1.0387	-8.19275	-2.83237	0	
1.0393	-5.44212	-2.83237	0	
1.0400	-3.60836	-0.401252	0	
1.0407	-3.31259	-1.91185	0	
1.0413	-2.69148	-3.13921	0	
1.0420	-0.561958	0.826108	0	
1.0427	0.0443651	1.74663	0	
1.0433	0.0443651	0.519268	0	
1.0440	3.10556	4.48459	0	
1.0447	6.46252	6.63247	0	
1.0453	7.37939	3.87091	0	
1.0460	10.4258	4.48459	0	
1.0467	14.0933	6.93931	0	
1.0473	12.5553	5.71195	0	
1.0480	9.50892	4.48459	0	
1.0487	10.1152	5.40511	0	
1.0493	8.9026	5.09827	0	
1.0500	5.54564	4.48459	0	
1.0507	4.92453	3.87091	0	
1.0513	2.795	1.74663	0	
1.0520	-2.08516	0.519268	0	
1.0527	-3.91892	0.826108	0	
1.0533	-4.22947	-0.401252	0	
1.0540	-5.44212	-2.83237	0	
1.0547	-3.60836	-1.91185	0	
1.0553	-2.39571	0.826108	0	
1.0560	-6.66955	0.212428	0	
1.0567	-8.79908	-0.99133	0	
1.0573	-5.75267	-1.60501	0	
1.0580	-5.14635	-1.29817	0	
1.0587	-5.75267	2.05347	0	
1.0593	-4.52524	4.17775	0	
1.0600	-3.91892	1.43979	0	
1.0607	-3.60836	0.519268	0	
1.0613	-2.69148	1.74663	0	
1.0620	-1.78939	-0.99133	0	
1.0627	0.961244	-2.83237	0	
1.0633	2.18868	-0.0944123	0	
1.0640	-0.251402	0.826108	0	
1.0647	-1.47884	0.826108	0	
1.0653	0.961244	3.28083	0	
1.0660	0.665476	4.17775	0	
1.0667	-1.16828	4.48459	0	
1.0673	-0.872513	7.83622	0	
1.0680	-0.872513	9.98411	0	
1.0687	-1.16828	7.55299	0	
1.0693	-0.561958	2.66715	0	
1.0700	-2.08516	0.212428	0	
1.0707	-6.04844	0.519268	0	
1.0713	-7.27588	0.519268	0	
1.0720	-7.58643	-0.99133	0	
1.0727	-7.8822	-1.60501	0	
1.0733	-5.75267	-2.83237	0	
1.0740	-3.60836	-3.75289	0	
1.0747	-3.91892	-3.75289	0	
1.0753	-4.52524	-4.67341	0	
1.0760	-2.69148	-4.98025	0	
1.0767	-1.47884	-6.49085	0	
1.0773	-2.69148	-9.53565	0	
1.0780	-3.31259	-10.1493	0	
1.0787	-1.78939	-7.10453	0	
1.0793	-2.39571	-4.67341	0	
1.0800	-3.60836	-2.21869	0	
1.0807	-1.78939	0.826108	0	
1.0813	-0.872513	0.519268	0	
1.0820	-0.251402	-0.401252	0	
1.0827	2.795	0.212428	0	
1.0833	5.23508	-0.401252	0	
1.0840	2.795	0.826108	0	
1.0847	0.961244	3.56407	0	
1.0853	0.354921	2.66715	0	
1.0860	-3.60836	1.43979	0	
1.0867	-7.27588	3.28083	0	
1.0873	-8.19275	3.56407	0	
1.0880	-10.0265	2.66715	0	
1.0887	-12.7624	0.826108	0	
1.0893	-14.5961	-1.91185	0	
1.0900	-16.1193	-1.29817	0	
1.0907	-16.4299	0.826108	0	
1.0913	-16.4299	0.519268	0	
1.0920	-19.1805	-0.0944123	0	
1.0927	-21.0143	-1.60501	0	
1.0933	-18.5742	-6.79769	0	
1.0940	-16.7404	-8.63873	0	
1.0947	-15.513	-5.26349	0	
1.0953	-10.3223	-6.49085	0	
1.0960	-4.52524	-8.94557	0	
1.0967	-1.16828	-6.18401	0	
1.0973	2.48445	-4.36657	0	
1.0980	8.9026	-5.87717	0	
1.0987	15.6165	-5.87717	0	
1.0993	20.4967	-3.75289	0	
1.1000	24.7705	-1.91185	0	
1.1007	27.5211	0.826108	0	
1.1013	26.2937	1.74663	0	
1.1020	25.6874	1.74663	0	
1.1027	25.6874	3.56407	0	
1.1033	22.9368	4.48459	0	
1.1040	20.1861	2.66715	0	
1.1047	19.8903	1.74663	0	
1.1053	19.8903	4.48459	0	
1.1060	18.9735	6.63247	0	
1.1067	17.746	6.32563	0	
1.1073	15.306	7.24615	0	
1.1080	11.949	7.55299	0	
1.1087	10.1152	4.48459	0	
1.1093	7.67516	2.05347	0	
1.1100	5.54564	3.87091	0	
1.1107	4.3182	5.09827	0	
1.1113	3.71188	2.05347	0	
1.1120	4.92453	-0.0944123	0	
1.1127	6.46252	0.826108	0	
1.1133	4.62876	0.826108	0	
1.1140	2.795	-0.99133	0	
1.1147	2.48445	-0.0944123	0	
1.1153	0.0443651	1.13295	0	
1.1160	-2.39571	-2.52553	0	
1.1167	-3.60836	-4.67341	0	
1.1173	-6.359	-3.44605	0	
1.1180	-7.27588	-5.26349	0	
1.1187	-6.66955	-7.41137	0	
1.1193	-8.79908	-4.67341	0	
1.1200	-9.71596	-2.52553	0	
1.1207	-7.58643	-1.60501	0	
1.1213	-7.27588	-0.401252	0	
1.1220	-6.96532	-1.91185	0	
1.1227	-3.91892	-1.91185	0	
1.1233	-3.31259	0.826108	0	
1.1240	-3.60836	-0.708093	0	
1.1247	-2.08516	-0.99133	0	
1.1253	-0.872513	5.40511	0	
1.1260	-1.78939	7.83622	0	
1.1267	-2.39571	6.32563	0	
1.1273	-2.08516	8.75674	0	
1.1280	1.87812	7.24615	0	
1.1287	6.75828	1.13295	0	
1.1293	6.46252	1.43979	0	
1.1300	3.71188	2.97399	0	
1.1307	4.62876	0.826108	0	
1.1313	6.15196	0.212428	0	
1.1320	6.46252	1.43979	0	
1.1327	5.23508	0.826108	0	
1.1333	1.87812	2.36031	0	
1.1340	0.0443651	4.48459	0	
1.1347	0.354921	2.97399	0	
1.1353	-3.31259	0.212428	0	
1.1360	-10.0265	0.212428	0	
1.1367	-11.8603	0.826108	0	
1.1373	-11.8603	-0.99133	0	
1.1380	-14.3003	-2.83237	0	
1.1387	-15.8235	-1.29817	0	
1.1393	-15.513	-0.99133	0	
1.1400	-14.9067	-2.83237	0	
1.1407	-13.6792	-1.91185	0	
1.1413	-10.9434	-1.29817	0	
1.1420	-7.58643	-2.21869	0	
1.1427	-4.8358	-0.708093	0	
1.1433	-2.69148	2.66715	0	
1.1440	0.354921	2.05347	0	
1.1447	2.795	-0.708093	0	
1.1453	4.62876	0.826108	0	
1.1460	6.46252	4.48459	0	
1.1467	8.9026	5.71195	0	
1.1473	11.0321	5.40511	0	
1.1480	13.4722	4.79143	0	
1.1487	13.7828	3.28083	0	
1.1493	11.949	1.13295	0	
1.1500	13.4722	-0.0944123	0	
1.1507	15.9123	-0.708093	0	
1.1513	11.3427	-0.708093	0	
1.1520	4.92453	0.212428	0	
1.1527	4.62876	-0.401252	0	
1.1533	4.92453	-0.99133	0	
1.1540	2.795	0.826108	0	
1.1547	2.48445	1.43979	0	
1.1553	1.2718	-0.99133	0	
1.1560	-1.16828	-1.29817	0	
1.1567	-3.00204	-0.99133	0	
1.1573	-4.22947	-2.52553	0	
1.1580	-5.44212	-2.83237	0	
1.1587	-5.44212	-2.21869	0	
1.1593	-6.04844	-4.36657	0	
1.1600	-7.58643	-5.57033	0	
1.1607	-7.27588	-3.44605	0	
1.1613	-5.75267	-3.13921	0	
1.1620	-8.19275	-3.75289	0	
1.1627	-9.10963	-0.99133	0	
1.1633	-4.52524	-0.0944123	0	
1.1640	-2.69148	-3.13921	0	
1.1647	-5.14635	-2.83237	0	
1.1653	-2.08516	-0.0944123	0	
1.1660	5.23508	-0.0944123	0	
1.1667	5.54564	-0.401252	0	
1.1673	1.56757	1.43979	0	
1.1680	0.961244	3.56407	0	
1.1687	2.795	4.48459	0	
1.1693	1.87812	4.48459	0	
1.1700	0.665476	2.66715	0	
1.1707	-0.251402	-0.401252	0	
1.1713	-1.47884	-0.99133	0	
1.1720	-2.69148	1.74663	0	
1.1727	-3.31259	1.74663	0	
1.1733	-4.52524	-3.75289	0	
1.1740	-6.359	-5.57033	0	
1.1747	-7.8822	-2.83237	0	
1.1753	-7.8822	-1.91185	0	
1.1760	-8.50331	-3.75289	0	
1.1767	-10.6328	-3.44605	0	
1.1773	-10.6328	-2.21869	0	
1.1780	-8.19275	-3.75289	0	
1.1787	-8.19275	-4.36657	0	
1.1793	-8.19275	-3.75289	0	
1.1800	-4.22947	-3.75289	0	
1.1807	-3.31259	-2.52553	0	
1.1813	-6.359	-0.99133	0	
1.1820	-6.66955	-1.91185	0	
1.1827	-3.00204	-2.52553	0	
1.1833	-3.60836	-1.91185	0	
1.1840	-8.19275	-1.91185	0	
1.1847	-8.50331	-1.60501	0	
1.1853	-6.04844	0.212428	0	
1.1860	-6.04844	0.519268	0	
1.1867	-7.27588	1.74663	0	
1.1873	-5.44212	4.17775	0	
1.1880	-2.39571	2.05347	0	
1.1887	0.0443651	-0.708093	0	
1.1893	2.48445	0.826108	0	
1.1900	5.23508	0.212428	0	
1.1907	8.59204	-1.91185	0	
1.1913	10.4258	-1.91185	0	
1.1920	11.0321	-3.75289	0	
1.1927	12.8659	-5.57033	0	
1.1933	14.3891	-2.52553	0	
1.1940	13.4722	-1.29817	0	
1.1947	12.5553	-3.75289	0	
1.1953	13.7828	-3.75289	0	
1.1960	14.0933	-3.13921	0	
1.1967	11.949	-3.75289	0	
1.1973	9.50892	-1.91185	0	
1.1980	6.75828	-0.401252	0	
1.1987	3.71188	-1.91185	0	
1.1993	3.40132	0.826108	0	
1.2000	6.75828	2.97399	0	
1.2007	7.37939	0.826108	0	
1.2013	2.795	0.519268	0	
1.2020	-0.872513	1.74663	0	
1.2027	0.0443651	0.826108	0	
1.2033	-0.872513	0.519268	0	
1.2040	-2.69148	1.43979	0	
1.2047	-2.69148	2.05347	0	
1.2053	-1.16828	2.36031	0	
1.2060	-1.16828	1.43979	0	
1.2067	-1.16828	1.13295	0	
1.2073	0.665476	3.56407	0	
1.2080	0.961244	3.56407	0	
1.2087	-1.16828	1.43979	0	
1.2093	-2.39571	1.43979	0	
1.2100	-2.69148	1.74663	0	
1.2107	-4.52524	0.212428	0	
1.2113	-5.75267	-0.0944123	0	
1.2120	-6.359	0.212428	0	
1.2127	-7.27588	-0.99133	0	
1.2133	-7.27588	-0.99133	0	
1.2140	-5.44212	1.13295	0	
1.2147	-6.66955	1.13295	0	
1.2153	-8.79908	-0.99133	0	
1.2160	-8.19275	-2.83237	0	
1.2167	-8.19275	-2.83237	0	
1.2173	-10.6328	-2.52553	0	
1.2180	-10.0265	-4.05973	0	
1.2187	-6.359	-6.18401	0	
1.2193	-5.14635	-4.67341	0	
1.2200	-5.44212	-3.13921	0	
1.2207	-3.60836	-4.67341	0	
1.2213	-2.08516	-4.67341	0	
1.2220	-2.39571	-2.83237	0	
1.2227	-0.872513	-2.83237	0	
1.2233	1.87812	-2.52553	0	
1.2240	2.795	0.519268	0	
1.2247	4.62876	-0.708093	0	
1.2253	9.19836	-3.44605	0	
1.2260	10.7364	-1.29817	0	
1.2267	11.0321	1.43979	0	
1.2273	14.9954	2.36031	0	
1.2280	16.8292	4.79143	0	
1.2287	13.1764	4.79143	0	
1.2293	10.7364	1.74663	0	
1.2300	11.3427	1.74663	0	
1.2307	11.0321	2.66715	0	
1.2313	8.28148	1.43979	0	
1.2320	5.8414	0.519268	0	
1.2327	4.3182	0.826108	0	
1.2333	1.87812	0.212428	0	
1.2340	-0.251402	-1.29817	0	
1.2347	0.961244	-3.13921	0	
1.2353	1.56757	-3.13921	0	
1.2360	0.0443651	-1.91185	0	
1.2367	0.0443651	-4.05973	0	
1.2373	0.0443651	-6.18401	0	
1.2380	-2.69148	-2.83237	0	
1.2387	-3.91892	-1.29817	0	
1.2393	-3.60836	-3.75289	0	
1.2400	-3.60836	-3.13921	0	
1.2407	-1.47884	-0.99133	0	
1.2413	-0.872513	-1.60501	0	
1.2420	-5.14635	-1.91185	0	
1.2427	-7.8822	-2.21869	0	
1.2433	-6.359	-4.36657	0	
1.2440	-8.19275	-4.98025	0	
1.2447	-7.8822	-2.21869	0	
1.2453	-2.08516	0.519268	0	
1.2460	-1.78939	0.212428	0	
1.2467	-7.8822	-0.99133	0	
1.2473	-9.4054	1.13295	0	
1.2480	-7.58643	2.66715	0	
1.2487	-6.359	0.212428	0	
1.2493	-3.31259	-0.0944123	0	
1.2500	-1.47884	3.56407	0	
1.2507	-2.69148	7.24615	0	
1.2513	-1.16828	12.7221	0	
1.2520	2.795	16.6874	0	
1.2527	4.62876	16.0973	0	
1.2533	6.46252	14.2563	0	
1.2540	6.46252	9.06358	0	
1.2547	4.02244	0.519268	0	
1.2553	4.62876	-4.67341	0	
1.2560	5.8414	-11.0698	0	
1.2567	-0.251402	-16.5694	0	
1.2573	-4.8358	-7.10453	0	
1.2580	0.961244	-1.60501	0	
1.2587	5.54564	-16.8762	0	
1.2593	4.62876	-22.9658	0	
1.2600	4.02244	-8.33189	0	
1.2607	3.71188	-2.83237	0	
1.2613	3.71188	-5.26349	0	
1.2620	7.06884	-1.91185	0	
1.2627	9.81947	-1.29817	0	
1.2633	9.50892	-2.21869	0	
1.2640	11.0321	2.05347	0	
1.2647	12.8659	0.212428	0	
1.2653	11.0321	-4.67341	0	
1.2660	8.59204	-3.13921	0	
1.2667	7.37939	-6.79769	0	
1.2673	6.15196	-18.1036	0	
1.2680	4.3182	-16.5694	0	
1.2687	2.795	-3.13921	0	
1.2693	1.2718	9.98411	0	
1.2700	-0.872513	20.9595	0	
1.2707	-4.22947	20.9595	0	
1.2713	-6.359	10.9046	0	
1.2720	-8.19275	8.14306	0	
1.2727	-10.6328	11.8251	0	
1.2733	-12.7624	10.9046	0	
1.2740	-16.1193	10.9046	0	
1.2747	-19.4763	13.6426	0	
1.2753	-20.7037	10.5978	0	
1.2760	-20.7037	7.55299	0	
1.2767	-20.3932	7.24615	0	
1.2773	-18.2636	-1.29817	0	
1.2780	-17.3468	-17.4899	0	
1.2787	-17.3468	-27.5448	0	
1.2793	-13.6792	-29.3858	0	
1.2800	-9.71596	-26.9311	0	
1.2807	-9.10963	-17.4899	0	
1.2813	-9.10963	-3.44605	0	
1.2820	-6.66955	3.56407	0	
1.2827	-0.872513	1.74663	0	
1.2833	4.3182	-0.708093	0	
1.2840	4.02244	-0.99133	0	
1.2847	2.795	-0.708093	0	
1.2853	8.28148	0.826108	0	
1.2860	13.7828	2.66715	0	
1.2867	11.0321	2.66715	0	
1.2873	10.1152	2.66715	0	
1.2880	14.6996	3.56407	0	
1.2887	14.6996	3.56407	0	
1.2893	12.2596	3.56407	0	
1.2900	13.7828	5.09827	0	
1.2907	13.4722	5.40511	0	
1.2913	10.1152	4.48459	0	
1.2920	10.7364	3.28083	0	
1.2927	12.2596	0.826108	0	
1.2933	9.50892	-1.29817	0	
1.2940	7.37939	-0.0944123	0	
1.2947	7.06884	0.826108	0	
1.2953	5.54564	-0.99133	0	
1.2960	3.71188	-0.0944123	0	
1.2967	2.795	-0.0944123	0	
1.2973	0.354921	-4.05973	0	
1.2980	-1.78939	-4.98025	0	
1.2987	-2.69148	-0.0944123	0	
1.2993	-2.08516	1.74663	0	
1.3000	-0.561958	0.826108	0	
1.3007	-0.872513	2.05347	0	
1.3013	-3.31259	2.97399	0	
1.3020	-4.52524	2.97399	0	
1.3027	-4.52524	3.56407	0	
1.3033	-5.75267	3.56407	0	
1.3040	-4.52524	4.79143	0	
1.3047	-0.561958	5.71195	0	
1.3053	1.2718	5.71195	0	
1.3060	-0.561958	6.32563	0	
1.3067	-2.39571	8.4499	0	
1.3073	-4.52524	9.37042	0	
1.3080	-7.27588	7.24615	0	
1.3087	-9.4054	3.56407	0	
1.3093	-10.0265	3.56407	0	
1.3100	-10.0265	5.40511	0	
1.3107	-9.4054	1.43979	0	
1.3113	-10.0265	-3.44605	0	
1.3120	-10.9434	-1.60501	0	
1.3127	-9.71596	-0.0944123	0	
1.3133	-6.04844	-2.83237	0	
1.3140	-2.39571	-2.83237	0	
1.3147	-0.872513	-0.99133	0	
1.3153	-0.561958	-2.83237	0	
1.3160	0.0443651	-4.05973	0	
1.3167	0.0443651	-1.91185	0	
1.3173	-1.78939	-0.0944123	0	
1.3180	-3.00204	-0.0944123	0	
1.3187	-3.60836	1.43979	0	
1.3193	-4.8358	2.97399	0	
1.3200	-6.04844	1.13295	0	
1.3207	-5.75267	-1.91185	0	
1.3213	-6.66955	-1.91185	0	
1.3220	-7.8822	0.519268	0	
1.3227	-6.66955	0.826108	0	
1.3233	-4.8358	-0.99133	0	
1.3240	-3.91892	-1.91185	0	
1.3247	-3.00204	-0.99133	0	
1.3253	-1.16828	0.826108	0	
1.3260	2.48445	1.43979	0	
1.3267	6.46252	0.212428	0	
1.3273	9.19836	-0.0944123	0	
1.3280	7.98572	-1.91185	0	
1.3287	7.67516	-4.36657	0	
1.3293	10.1152	-4.36657	0	
1.3300	11.6384	-2.83237	0	
1.3307	11.0321	-2.52553	0	
1.3313	10.1152	-2.21869	0	
1.3320	8.28148	-1.91185	0	
1.3327	6.75828	-2.21869	0	
1.3333	6.46252	-1.91185	0	
1.3340	2.48445	-1.91185	0	
1.3347	-2.08516	-1.91185	0	
1.3353	-1.78939	-2.52553	0	
1.3360	-1.78939	-3.75289	0	
1.3367	-6.04844	-5.57033	0	
1.3373	-7.8822	-4.98025	0	
1.3380	-5.75267	-1.60501	0	
1.3387	-3.00204	1.74663	0	
1.3393	-0.251402	3.28083	0	
1.3400	0.665476	1.74663	0	
1.3407	1.56757	0.212428	0	
1.3413	4.62876	1.74663	0	
1.3420	4.62876	1.74663	0	
1.3427	2.18868	1.13295	0	
1.3433	2.795	4.79143	0	
1.3440	3.71188	6.01879	0	
1.3447	0.961244	0.212428	0	
1.3453	0.0443651	-1.29817	0	
1.3460	1.87812	2.66715	0	
1.3467	1.56757	2.36031	0	
1.3473	-0.251402	0.519268	0	
1.3480	-0.251402	2.66715	0	
1.3487	-0.251402	3.56407	0	
1.3493	-0.872513	3.28083	0	
1.3500	0.354921	2.97399	0	
1.3507	2.795	0.826108	0	
1.3513	4.3182	-0.99133	0	
1.3520	4.3182	-0.708093	0	
1.3527	6.46252	-1.60501	0	
1.3533	9.19836	-2.52553	0	
1.3540	7.98572	-2.52553	0	
1.3547	6.46252	-3.75289	0	
1.3553	9.19836	-4.36657	0	
1.3560	11.3427	-3.75289	0	
1.3567	8.28148	-1.91185	0	
1.3573	5.23508	-0.0944123	0	
1.3580	4.92453	-0.708093	0	
1.3587	5.54564	-2.21869	0	
1.3593	5.8414	-0.401252	0	
1.3600	6.15196	0.826108	0	
1.3607	3.40132	-1.91185	0	
1.3613	-1.78939	-1.91185	0	
1.3620	-5.75267	2.05347	0	
1.3627	-6.359	3.56407	0	
1.3633	-6.359	3.28083	0	
1.3640	-7.27588	2.97399	0	
1.3647	-5.44212	2.05347	0	
1.3653	-2.69148	2.66715	0	
1.3660	-1.16828	4.79143	0	
1.3667	-0.251402	4.48459	0	
1.3673	0.0443651	3.56407	0	
1.3680	-0.872513	4.17775	0	
1.3687	-0.251402	3.56407	0	
1.3693	0.961244	2.66715	0	
1.3700	0.354921	3.56407	0	
1.3707	-1.16828	5.40511	0	
1.3713	-3.00204	5.09827	0	
1.3720	-5.44212	4.48459	0	
1.3727	-5.75267	4.79143	0	
1.3733	-6.359	4.48459	0	
1.3740	-9.10963	2.66715	0	
1.3747	-10.0265	2.05347	0	
1.3753	-7.8822	2.36031	0	
1.3760	-7.8822	0.519268	0	
1.3767	-11.8603	-1.60501	0	
1.3773	-15.2172	-2.52553	0	
1.3780	-15.513	-3.75289	0	
1.3787	-13.6792	-3.75289	0	
1.3793	-11.8603	-1.91185	0	
1.3800	-11.2392	-1.91185	0	
1.3807	-10.9434	-2.83237	0	
1.3813	-11.2392	-3.44605	0	
1.3820	-11.5497	-3.13921	0	
1.3827	-8.50331	-1.91185	0	
1.3833	-3.00204	-1.60501	0	
1.3840	0.0443651	-2.83237	0	
1.3847	0.961244	-2.83237	0	
1.3853	4.62876	-0.708093	0	
1.3860	7.98572	-0.708093	0	
1.3867	9.50892	-0.99133	0	
1.3873	10.7364	0.826108	0	
1.3880	9.50892	2.36031	0	
1.3887	5.54564	1.74663	0	
1.3893	3.10556	0.212428	0	
1.3900	3.71188	-2.52553	0	
1.3907	2.48445	-2.21869	0	
1.3913	-0.561958	-0.0944123	0	
1.3920	-2.39571	-0.99133	0	
1.3927	-3.00204	-3.75289	0	
1.3933	-5.44212	-4.67341	0	
1.3940	-9.10963	-3.75289	0	
1.3947	-7.58643	-3.75289	0	
1.3953	-0.561958	-3.75289	0	
1.3960	2.48445	-3.75289	0	
1.3967	1.87812	-3.75289	0	
1.3973	5.8414	-5.26349	0	
1.3980	9.50892	-7.71821	0	
1.3987	7.37939	-8.33189	0	
1.3993	7.37939	-6.18401	0	
1.4000	9.19836	-4.05973	0	
1.4007	5.8414	-2.83237	0	
1.4013	0.665476	-1.91185	0	
1.4020	-0.561958	-1.91185	0	
1.4027	-0.561958	-1.91185	0	
1.4033	-2.08516	-0.0944123	0	
1.4040	-3.00204	2.36031	0	
1.4047	-3.60836	2.97399	0	
1.4053	-5.14635	2.36031	0	
1.4060	-6.96532	1.74663	0	
1.4067	-5.44212	2.66715	0	
1.4073	-0.872513	3.56407	0	
1.4080	1.87812	1.43979	0	
1.4087	3.71188	-0.99133	0	
1.4093	6.46252	-0.401252	0	
1.4100	7.98572	0.826108	0	
1.4107	8.59204	0.519268	0	
1.4113	9.50892	-1.60501	0	
1.4120	8.28148	-3.75289	0	
1.4127	6.46252	-3.13921	0	
1.4133	5.54564	-0.401252	0	
1.4140	3.71188	-1.60501	0	
1.4147	2.795	-3.75289	0	
1.4153	3.40132	-1.91185	0	
1.4160	3.10556	-1.91185	0	
1.4167	1.56757	-4.67341	0	
1.4173	1.56757	-4.98025	0	
1.4180	2.795	-3.75289	0	
1.4187	2.48445	-3.44605	0	
1.4193	0.0443651	-1.91185	0	
1.4200	-0.872513	-0.0944123	0	
1.4207	-1.47884	0.826108	0	
1.4213	-2.39571	0.826108	0	
1.4220	-1.78939	-0.0944123	0	
1.4227	0.0443651	-0.708093	0	
1.4233	-1.78939	-1.29817	0	
1.4240	-3.31259	-3.75289	0	
1.4247	0.0443651	-2.52553	0	
1.4253	2.795	4.17775	0	
1.4260	0.961244	6.01879	0	
1.4267	-0.561958	3.28083	0	
1.4273	0.961244	4.48459	0	
1.4280	1.87812	3.87091	0	
1.4287	2.795	-1.29817	0	
1.4293	2.795	-1.29817	0	
1.4300	-1.16828	1.74663	0	
1.4307	-4.8358	0.212428	0	
1.4313	-3.91892	-0.99133	0	
1.4320	-3.31259	1.13295	0	
1.4327	-4.52524	1.43979	0	
1.4333	-2.69148	0.519268	0	
1.4340	0.665476	-0.0944123	0	
1.4347	0.354921	-1.91185	0	
1.4353	0.961244	-3.75289	0	
1.4360	3.10556	-4.67341	0	
1.4367	3.10556	-3.75289	0	
1.4373	4.02244	-0.99133	0	
1.4380	7.67516	0.519268	0	
1.4387	9.19836	2.66715	0	
1.4393	7.67516	5.40511	0	
1.4400	7.67516	3.87091	0	
1.4407	8.28148	0.826108	0	
1.4413	7.37939	1.13295	0	
1.4420	6.15196	1.74663	0	
1.4427	4.3182	2.66715	0	
1.4433	4.02244	6.01879	0	
1.4440	5.54564	6.32563	0	
1.4447	3.71188	5.09827	0	
1.4453	0.0443651	8.14306	0	
1.4460	2.795	9.98411	0	
1.4467	5.8414	7.24615	0	
1.4473	3.71188	7.24615	0	
1.4480	1.87812	6.63247	0	
1.4487	2.795	1.74663	0	
1.4493	2.795	-0.0944123	0	
1.4500	3.10556	1.13295	0	
1.4507	0.961244	-0.0944123	0	
1.4513	-2.08516	0.826108	0	
1.4520	-0.561958	2.66715	0	
1.4527	-0.561958	-0.401252	0	
1.4533	-6.04844	-2.21869	0	
1.4540	-5.44212	-0.0944123	0	
1.4547	-1.16828	-0.401252	0	
1.4553	-6.04844	-3.13921	0	
1.4560	-12.156	-2.83237	0	
1.4567	-12.7624	-1.29817	0	
1.4573	-14.3003	-3.13921	0	
1.4580	-16.1193	-5.26349	0	
1.4587	-15.513	-4.67341	0	
1.4593	-17.3468	-1.29817	0	
1.4600	-19.7868	-0.708093	0	
1.4607	-18.5742	-3.75289	0	
1.4613	-16.4299	-4.05973	0	
1.4620	-14.3003	-0.0944123	0	
1.4627	-11.8603	1.74663	0	
1.4633	-11.2392	-0.0944123	0	
1.4640	-9.71596	-0.708093	0	
1.4647	-6.359	-0.0944123	0	
1.4653	-5.14635	1.43979	0	
1.4660	-2.08516	4.48459	0	
1.4667	3.71188	5.40511	0	
1.4673	7.37939	3.56407	0	
1.4680	9.19836	0.826108	0	
1.4687	15.306	-0.708093	0	
1.4693	20.1861	-0.0944123	0	
1.4700	19.2692	2.36031	0	
1.4707	17.4503	3.28083	0	
1.4713	14.0933	1.43979	0	
1.4720	8.28148	-0.0944123	0	
1.4727	8.28148	1.13295	0	
1.4733	11.0321	1.74663	0	
1.4740	6.75828	0.826108	0	
1.4747	0.961244	-0.99133	0	
1.4753	-1.78939	-1.91185	0	
1.4760	-6.66955	-1.60501	0	
1.4767	-11.8603	-3.44605	0	
1.4773	-12.156	-5.57033	0	
1.4780	-11.8603	-4.36657	0	
1.4787	-12.7624	-1.60501	0	
1.4793	-13.6792	-2.83237	0	
1.4800	-16.1193	-5.57033	0	
1.4807	-16.7404	-5.26349	0	
1.4813	-13.6792	-3.44605	0	
1.4820	-12.4666	-1.91185	0	
1.4827	-12.7624	-1.60501	0	
1.4833	-10.0265	-1.91185	0	
1.4840	-6.66955	-1.60501	0	
1.4847	-4.52524	-0.708093	0	
1.4853	2.18868	0.519268	0	
1.4860	11.6384	2.36031	0	
1.4867	16.5334	3.28083	0	
1.4873	19.2692	1.43979	0	
1.4880	22.6262	-0.401252	0	
1.4887	24.7705	-0.99133	0	
1.4893	25.3768	-1.91185	0	
1.4900	25.0663	-1.91185	0	
1.4907	23.5431	0.212428	0	
1.4913	22.9368	-0.0944123	0	
1.4920	23.5431	-1.60501	0	
1.4927	21.4136	-0.99133	0	
1.4933	18.6629	-0.99133	0	
1.4940	16.2228	-2.83237	0	
1.4947	11.0321	-3.44605	0	
1.4953	6.46252	-3.44605	0	
1.4960	5.23508	-4.67341	0	
1.4967	2.795	-4.67341	0	
1.4973	-3.31259	-4.67341	0	
1.4980	-10.0265	-4.98025	0	
1.4987	-15.513	-3.75289	0	
1.4993	-21.0143	-2.52553	0	
1.5000	-25.2881	-3.75289	0	
1.5007	-26.8113	-3.75289	0	
1.5013	-24.3712	-1.91185	0	
1.5020	-21.0143	-4.05973	0	
1.5027	-20.7037	-6.49085	0	
1.5033	-19.1805	-2.83237	0	
1.5040	-15.513	-0.0944123	0	
1.5047	-10.6328	-0.99133	0	
1.5053	-3.31259	-0.0944123	0	
1.5060	5.8414	2.66715	0	
1.5067	11.3427	2.66715	0	
1.5073	15.306	2.05347	0	
1.5080	20.8072	3.28083	0	
1.5087	24.7705	2.97399	0	
1.5093	24.1642	2.05347	0	
1.5100	22.0199	2.66715	0	
1.5107	21.4136	2.66715	0	
1.5113	21.103	0.826108	0	
1.5120	19.8903	0.519268	0	
1.5127	17.4503	1.13295	0	
1.5133	12.2596	0.519268	0	
1.5140	6.15196	-0.0944123	0	
1.5147	1.87812	1.43979	0	
1.5153	-3.31259	2.66715	0	
1.5160	-9.4054	1.43979	0	
1.5167	-10.3223	-0.0944123	0	
1.5173	-8.19275	-0.708093	0	
1.5180	-10.3223	-1.60501	0	
1.5187	-12.4666	-1.91185	0	
1.5193	-10.0265	-1.29817	0	
1.5200	-9.10963	-1.60501	0	
1.5207	-10.0265	-0.708093	0	
1.5213	-8.79908	0.826108	0	
1.5220	-7.8822	0.826108	0	
1.5227	-8.19275	1.13295	0	
1.5233	-6.359	2.97399	0	
1.5240	-4.52524	3.56407	0	
1.5247	-5.44212	2.05347	0	
1.5253	-7.27588	1.74663	0	
1.5260	-6.359	1.74663	0	
1.5267	-6.04844	1.74663	0	
1.5273	-7.27588	1.74663	0	
1.5280	-7.58643	3.56407	0	
1.5287	-6.66955	3.87091	0	
1.5293	-9.4054	0.826108	0	
1.5300	-13.9898	-1.91185	0	
1.5307	-13.0729	-0.0944123	0	
1.5313	-9.10963	0.826108	0	
1.5320	-8.50331	-0.99133	0	
1.5327	-9.10963	-2.83237	0	
1.5333	-7.8822	-4.36657	0	
1.5340	-5.75267	-5.57033	0	
1.5347	-4.8358	-5.57033	0	
1.5353	-4.52524	-5.57033	0	
1.5360	-5.44212	-7.10453	0	
1.5367	-6.04844	-8.94557	0	
1.5373	-0.561958	-9.53565	0	
1.5380	6.15196	-8.33189	0	
1.5387	7.06884	-7.10453	0	
1.5393	7.37939	-5.26349	0	
1.5400	11.949	-2.83237	0	
1.5407	13.7828	-0.0944123	0	
1.5413	11.0321	3.28083	0	
1.5420	8.9026	6.93931	0	
1.5427	8.28148	6.32563	0	
1.5433	8.9026	6.63247	0	
1.5440	12.2596	12.7221	0	
1.5447	12.8659	14.8699	0	
1.5453	9.19836	11.5183	0	
1.5460	7.37939	10.5978	0	
1.5467	6.15196	9.06358	0	
1.5473	3.40132	4.48459	0	
1.5480	1.56757	6.01879	0	
1.5487	1.56757	8.14306	0	
1.5493	1.2718	3.56407	0	
1.5500	-0.872513	0.212428	0	
1.5507	-3.91892	2.97399	0	
1.5513	-3.31259	3.28083	0	
1.5520	-0.872513	1.13295	0	
1.5527	-3.31259	2.05347	0	
1.5533	-5.44212	2.66715	0	
1.5540	-3.60836	1.43979	0	
1.5547	-3.00204	2.97399	0	
1.5553	-5.14635	4.48459	0	
1.5560	-2.08516	1.74663	0	
1.5567	1.87812	-1.91185	0	
1.5573	-0.561958	-0.99133	0	
1.5580	-3.60836	-0.0944123	0	
1.5587	-1.78939	-2.21869	0	
1.5593	-0.561958	-2.52553	0	
1.5600	-1.78939	-0.401252	0	
1.5607	-0.251402	-0.0944123	0	
1.5613	2.795	0.826108	0	
1.5620	2.795	3.87091	0	
1.5627	1.87812	5.09827	0	
1.5633	3.71188	2.97399	0	
1.5640	3.71188	1.43979	0	
1.5647	1.87812	0.212428	0	
1.5653	2.48445	-1.91185	0	
1.5660	5.23508	-1.91185	0	
1.5667	7.06884	2.05347	0	
1.5673	5.8414	5.40511	0	
1.5680	4.02244	4.48459	0	
1.5687	4.92453	2.97399	0	
1.5693	4.92453	1.43979	0	
1.5700	0.354921	-1.91185	0	
1.5707	-2.69148	-3.44605	0	
1.5713	-2.08516	-0.99133	0	
1.5720	-4.52524	-0.0944123	0	
1.5727	-6.96532	-2.83237	0	
1.5733	-4.22947	-4.98025	0	
1.5740	-3.91892	-5.26349	0	
1.5747	-5.44212	-6.49085	0	
1.5753	-3.60836	-8.02505	0	
1.5760	-4.52524	-7.10453	0	
1.5767	-9.4054	-5.87717	0	
1.5773	-8.79908	-8.02505	0	
1.5780	-6.66955	-8.63873	0	
1.5787	-10.3223	-5.87717	0	
1.5793	-10.9434	-5.57033	0	
1.5800	-8.19275	-7.71821	0	
1.5807	-12.156	-8.33189	0	
1.5813	-17.9531	-7.10453	0	
1.5820	-17.0362	-5.87717	0	
1.5827	-13.6792	-3.75289	0	
1.5833	-10.9434	-1.91185	0	
1.5840	-6.04844	-2.83237	0	
1.5847	-1.47884	-2.21869	0	
1.5853	2.48445	0.519268	0	
1.5860	7.37939	2.05347	0	
1.5867	10.1152	3.28083	0	
1.5873	8.9026	3.87091	0	
1.5880	10.1152	2.05347	0	
1.5887	14.6996	1.74663	0	
1.5893	15.9123	6.01879	0	
1.5900	11.949	6.93931	0	
1.5907	7.67516	3.56407	0	
1.5913	6.46252	3.87091	0	
1.5920	4.62876	6.63247	0	
1.5927	0.0443651	4.48459	0	
1.5933	-3.31259	1.74663	0	
1.5940	-2.69148	1.43979	0	
1.5947	-3.00204	0.519268	0	
1.5953	-3.60836	-1.91185	0	
1.5960	-1.47884	-3.75289	0	
1.5967	-1.16828	-3.75289	0	
1.5973	-1.47884	-1.60501	0	
1.5980	0.961244	1.43979	0	
1.5987	1.56757	0.519268	0	
1.5993	1.2718	-3.75289	0	
1.6000	3.71188	-4.36657	0	
1.6007	6.15196	-2.21869	0	
1.6013	5.54564	-0.401252	0	
1.6020	5.54564	0.519268	0	
1.6027	4.02244	1.13295	0	
1.6033	1.2718	-0.0944123	0	
1.6040	0.0443651	-1.29817	0	
1.6047	-1.16828	0.212428	0	
1.6053	0.0443651	2.66715	0	
1.6060	4.3182	3.87091	0	
1.6067	6.46252	4.48459	0	
1.6073	4.02244	4.17775	0	
1.6080	2.18868	3.28083	0	
1.6087	1.2718	2.66715	0	
1.6093	0.354921	0.826108	0	
1.6100	0.0443651	-0.0944123	0	
1.6107	-0.872513	0.826108	0	
1.6113	-2.39571	-1.91185	0	
1.6120	-2.69148	-5.57033	0	
1.6127	-3.60836	-4.05973	0	
1.6133	-3.60836	-3.13921	0	
1.6140	-2.69148	-6.18401	0	
1.6147	-3.00204	-6.18401	0	
1.6153	-4.22947	-3.75289	0	
1.6160	-2.69148	-3.75289	0	
1.6167	-0.872513	-5.87717	0	
1.6173	-3.60836	-7.41137	0	
1.6180	-4.52524	-7.41137	0	
1.6187	-0.561958	-6.49085	0	
1.6193	2.18868	-6.49085	0	
1.6200	0.354921	-5.87717	0	
1.6207	-2.39571	-2.83237	0	
1.6213	-2.69148	-0.99133	0	
1.6220	-2.69148	1.74663	0	
1.6227	-3.60836	6.63247	0	
1.6233	-5.14635	7.83622	0	
1.6240	-5.14635	4.79143	0	
1.6247	-3.60836	6.01879	0	
1.6253	-3.60836	7.83622	0	
1.6260	-4.52524	5.40511	0	
1.6267	-3.91892	2.66715	0	
1.6273	-2.69148	2.66715	0	
1.6280	-1.47884	1.74663	0	
1.6287	-0.872513	0.212428	0	
1.6293	-1.47884	-0.0944123	0	
1.6300	-1.47884	0.826108	0	
1.6307	-0.561958	1.13295	0	
1.6313	-0.561958	0.826108	0	
1.6320	-0.872513	0.826108	0	
1.6327	0.961244	0.212428	0	
1.6333	2.795	-1.60501	0	
1.6340	2.795	-1.60501	0	
1.6347	2.795	-1.29817	0	
1.6353	2.795	-4.05973	0	
1.6360	2.48445	-4.05973	0	
1.6367	1.2718	-0.99133	0	
1.6373	0.961244	-1.60501	0	
1.6380	0.961244	-4.05973	0	
1.6387	1.87812	-2.83237	0	
1.6393	2.795	-0.99133	0	
1.6400	5.54564	-0.401252	0	
1.6407	8.59204	2.36031	0	
1.6413	7.06884	4.17775	0	
1.6420	4.92453	2.36031	0	
1.6427	7.67516	2.66715	0	
1.6433	8.9026	3.87091	0	
1.6440	4.62876	2.97399	0	
1.6447	1.87812	2.66715	0	
1.6453	-0.251402	2.05347	0	
1.6460	-3.00204	-0.0944123	0	
1.6467	-2.39571	0.519268	0	
1.6473	0.665476	2.97399	0	
1.6480	-0.872513	2.66715	0	
1.6487	-2.69148	1.74663	0	
1.6493	-1.78939	2.66715	0	
1.6500	-2.69148	2.97399	0	
1.6507	-5.44212	0.519268	0	
1.6513	-6.04844	-2.21869	0	
1.6520	-5.44212	-3.13921	0	
1.6527	-5.44212	-2.83237	0	
1.6533	-3.00204	-2.52553	0	
1.6540	-0.561958	-2.52553	0	
1.6547	-0.561958	-2.83237	0	
1.6553	-1.78939	-3.13921	0	
1.6560	-1.16828	-3.13921	0	
1.6567	-1.16828	-2.83237	0	
1.6573	-3.00204	-3.44605	0	
1.6580	-3.60836	-2.83237	0	
1.6587	-2.08516	-1.29817	0	
1.6593	-2.69148	-1.60501	0	
1.6600	-3.60836	-3.13921	0	
1.6607	-1.47884	-2.83237	0	
1.6613	0.354921	-0.99133	0	
1.6620	-0.872513	0.519268	0	
1.6627	0.0443651	-0.0944123	0	
1.6633	2.795	-0.99133	0	
1.6640	2.795	0.519268	0	
1.6647	2.795	1.74663	0	
1.6653	7.37939	-0.0944123	0	
1.6660	8.28148	2.66715	0	
1.6667	6.15196	8.14306	0	
1.6673	6.46252	7.83622	0	
1.6680	4.62876	3.87091	0	
1.6687	-1.47884	5.40511	0	
1.6693	-4.52524	6.32563	0	
1.6700	-4.52524	2.97399	0	
1.6707	-5.44212	1.13295	0	
1.6713	-7.27588	1.13295	0	
1.6720	-8.50331	-0.99133	0	
1.6727	-10.9434	-2.52553	0	
1.6733	-12.4666	-0.99133	0	
1.6740	-11.8603	0.826108	0	
1.6747	-13.0729	-0.401252	0	
1.6753	-15.8235	-3.75289	0	
1.6760	-15.513	-5.57033	0	
1.6767	-14.5961	-2.83237	0	
1.6773	-14.9067	0.519268	0	
1.6780	-13.3835	-1.60501	0	
1.6787	-10.0265	-3.75289	0	
1.6793	-9.4054	-0.99133	0	
1.6800	-9.10963	3.28083	0	
1.6807	-6.04844	4.17775	0	
1.6813	-4.52524	3.56407	0	
1.6820	-5.44212	2.36031	0	
1.6827	-2.39571	0.826108	0	
1.6833	3.71188	2.66715	0	
1.6840	9.19836	3.87091	0	
1.6847	12.8659	0.212428	0	
1.6853	14.6996	-0.99133	0	
1.6860	14.6996	3.56407	0	
1.6867	15.6165	3.87091	0	
1.6873	19.2692	0.826108	0	
1.6880	24.1642	1.43979	0	
1.6887	24.46	2.97399	0	
1.6893	18.6629	0.212428	0	
1.6900	14.0933	-1.91185	0	
1.6907	13.7828	0.826108	0	
1.6913	11.0321	3.87091	0	
1.6920	7.37939	2.36031	0	
1.6927	7.98572	-1.60501	0	
1.6933	7.37939	-1.91185	0	
1.6940	3.10556	0.519268	0	
1.6947	1.56757	1.74663	0	
1.6953	0.0443651	1.74663	0	
1.6960	-2.08516	1.13295	0	
1.6967	-0.872513	-0.99133	0	
1.6973	0.961244	-1.60501	0	
1.6980	-0.251402	0.519268	0	
1.6987	0.961244	0.519268	0	
1.6993	4.02244	-3.75289	0	
1.7000	4.62876	-6.79769	0	
1.7007	5.23508	-5.26349	0	
1.7013	7.37939	-1.60501	0	
1.7020	9.19836	1.13295	0	
1.7027	9.50892	1.74663	0	
1.7033	7.37939	2.66715	0	
1.7040	4.3182	4.17775	0	
1.7047	4.3182	4.48459	0	
1.7053	4.02244	5.40511	0	
1.7060	-0.561958	8.14306	0	
1.7067	-2.39571	9.98411	0	
1.7073	1.2718	7.24615	0	
1.7080	0.665476	3.56407	0	
1.7087	-3.60836	2.66715	0	
1.7093	-3.31259	2.66715	0	
1.7100	-1.78939	2.97399	0	
1.7107	-4.52524	3.87091	0	
1.7113	-5.75267	2.66715	0	
1.7120	-3.60836	-0.401252	0	
1.7127	-3.60836	-3.13921	0	
1.7133	-6.04844	-4.67341	0	
1.7140	-4.22947	-3.75289	0	
1.7147	-1.16828	-2.83237	0	
1.7153	-1.78939	-4.36657	0	
1.7160	-3.60836	-6.18401	0	
1.7167	-1.78939	-5.57033	0	
1.7173	-0.561958	-6.49085	0	
1.7180	-2.08516	-7.41137	0	
1.7187	-5.44212	-4.67341	0	
1.7193	-9.10963	-2.21869	0	
1.7200	-10.3223	-2.83237	0	
1.7207	-10.9434	-3.75289	0	
1.7213	-10.9434	-2.21869	0	
1.7220	-10.9434	-1.29817	0	
1.7227	-11.5497	-2.83237	0	
1.7233	-11.8603	-2.83237	0	
1.7240	-10.6328	0.826108	0	
1.7247	-9.4054	1.13295	0	
1.7253	-10.6328	-0.99133	0	
1.7260	-12.4666	0.826108	0	
1.7267	-13.3835	4.17775	0	
1.7273	-14.3003	4.48459	0	
1.7280	-16.7404	5.40511	0	
1.7287	-18.2636	5.09827	0	
1.7293	-15.8235	0.519268	0	
1.7300	-11.5497	-1.60501	0	
1.7307	-10.9434	0.826108	0	
1.7313	-10.9434	-0.401252	0	
1.7320	-6.359	-3.75289	0	
1.7327	-1.78939	-3.75289	0	
1.7333	0.961244	-3.75289	0	
1.7340	4.02244	-5.57033	0	
1.7347	5.8414	-4.98025	0	
1.7353	3.71188	-4.67341	0	
1.7360	2.795	-6.79769	0	
1.7367	5.23508	-8.33189	0	
1.7373	6.15196	-8.02505	0	
1.7380	2.48445	-5.87717	0	
1.7387	0.0443651	-4.05973	0	
1.7393	1.87812	-5.87717	0	
1.7400	1.56757	-6.49085	0	
1.7407	-2.69148	-3.75289	0	
1.7413	-3.00204	-4.36657	0	
1.7420	-0.872513	-4.98025	0	
1.7427	-0.872513	-1.29817	0	
1.7433	0.0443651	1.74663	0	
1.7440	2.48445	1.43979	0	
1.7447	3.10556	1.13295	0	
1.7453	7.06884	-0.0944123	0	
1.7460	14.6996	-0.0944123	0	
1.7467	17.746	4.17775	0	
1.7473	15.306	6.63247	0	
1.7480	13.7828	5.09827	0	
1.7487	15.306	4.79143	0	
1.7493	15.6165	5.71195	0	
1.7500	16.2228	4.48459	0	
1.7507	16.8292	1.74663	0	
1.7513	14.9954	1.74663	0	
1.7520	11.949	4.48459	0	
1.7527	9.50892	5.71195	0	
1.7533	6.75828	2.66715	0	
1.7540	3.71188	1.74663	0	
1.7547	2.48445	2.66715	0	
1.7553	2.48445	0.826108	0	
1.7560	2.18868	-1.29817	0	
1.7567	3.71188	-0.708093	0	
1.7573	7.37939	-1.91185	0	
1.7580	7.37939	-2.83237	0	
1.7587	3.71188	-0.99133	0	
1.7593	0.961244	-1.29817	0	
1.7600	0.0443651	-2.21869	0	
1.7607	-2.39571	0.212428	0	
1.7613	-4.52524	0.826108	0	
1.7620	-5.14635	-3.13921	0	
1.7627	-4.52524	-3.75289	0	
1.7633	-4.52524	-1.91185	0	
1.7640	-5.75267	-0.99133	0	
1.7647	-6.66955	-2.21869	0	
1.7653	-4.8358	-2.21869	0	
1.7660	-1.78939	0.519268	0	
1.7667	1.2718	3.28083	0	
1.7673	4.62876	1.74663	0	
1.7680	7.06884	-0.0944123	0	
1.7687	4.92453	1.13295	0	
1.7693	2.795	0.519268	0	
1.7700	1.87812	-1.29817	0	
1.7707	0.354921	0.826108	0	
1.7713	-0.561958	1.74663	0	
1.7720	-0.251402	-1.91185	0	
1.7727	-2.69148	-3.13921	0	
1.7733	-6.359	-0.99133	0	
1.7740	-6.359	-1.91185	0	
1.7747	-6.66955	-2.52553	0	
1.7753	-10.0265	-0.401252	0	
1.7760	-10.0265	-1.91185	0	
1.7767	-7.8822	-5.87717	0	
1.7773	-8.50331	-4.98025	0	
1.7780	-11.2392	-1.91185	0	
1.7787	-12.4666	-1.91185	0	
1.7793	-10.9434	-3.13921	0	
1.7800	-8.79908	-2.52553	0	
1.7807	-9.10963	-0.99133	0	
1.7813	-10.0265	-0.0944123	0	
1.7820	-6.96532	0.519268	0	
1.7827	-3.60836	1.74663	0	
1.7833	-2.08516	1.74663	0	
1.7840	-0.561958	0.826108	0	
1.7847	-1.78939	1.74663	0	
1.7853	-5.14635	3.28083	0	
1.7860	-2.69148	2.97399	0	
1.7867	2.18868	3.87091	0	
1.7873	4.02244	6.01879	0	
1.7880	4.3182	6.32563	0	
1.7887	5.54564	5.71195	0	
1.7893	7.37939	3.56407	0	
1.7900	7.98572	1.13295	0	
1.7907	3.71188	1.74663	0	
1.7913	0.0443651	3.28083	0	
1.7920	1.56757	1.13295	0	
1.7927	2.795	-0.0944123	0	
1.7933	1.2718	1.43979	0	
1.7940	1.2718	1.74663	0	
1.7947	1.56757	1.74663	0	
1.7953	-0.561958	1.13295	0	
1.7960	-2.08516	-2.83237	0	
1.7967	-1.78939	-4.36657	0	
1.7973	-2.39571	-2.83237	0	
1.7980	-3.60836	-4.05973	0	
1.7987	-6.359	-6.79769	0	
1.7993	-7.8822	-4.67341	0	
1.8000	-6.359	-1.29817	0	
1.8007	-4.8358	-1.29817	0	
1.8013	-6.359	0.212428	0	
1.8020	-8.19275	1.74663	0	
1.8027	-8.19275	-0.401252	0	
1.8033	-6.04844	-1.91185	0	
1.8040	-6.04844	-1.60501	0	
1.8047	-8.79908	-1.91185	0	
1.8053	-10.9434	-2.52553	0	
1.8060	-12.7624	-1.60501	0	
1.8067	-13.9898	-1.91185	0	
1.8073	-12.156	-1.60501	0	
1.8080	-9.10963	-0.708093	0	
1.8087	-7.27588	-0.99133	0	
1.8093	-1.78939	-0.99133	0	
1.8100	3.71188	-1.29817	0	
1.8107	2.18868	-3.75289	0	
1.8113	1.87812	-4.36657	0	
1.8120	9.19836	-2.21869	0	
1.8127	12.5553	-2.52553	0	
1.8133	10.1152	-1.91185	0	
1.8140	12.5553	0.826108	0	
1.8147	12.8659	-1.60501	0	
1.8153	8.9026	-4.36657	0	
1.8160	9.81947	-1.91185	0	
1.8167	12.5553	-2.83237	0	
1.8173	11.3427	-6.49085	0	
1.8180	12.8659	-2.83237	0	
1.8187	14.6996	2.66715	0	
1.8193	12.8659	2.66715	0	
1.8200	15.306	2.36031	0	
1.8207	19.2692	2.36031	0	
1.8213	16.5334	-1.29817	0	
1.8220	14.0933	-2.83237	0	
1.8227	15.9123	-0.0944123	0	
1.8233	14.6996	0.519268	0	
1.8240	12.5553	-1.29817	0	
1.8247	12.5553	0.212428	0	
1.8253	10.1152	3.56407	0	
1.8260	5.54564	5.40511	0	
1.8267	1.87812	7.55299	0	
1.8273	-0.872513	9.37042	0	
1.8280	-1.78939	7.24615	0	
1.8287	-1.16828	5.40511	0	
1.8293	-3.31259	6.93931	0	
1.8300	-6.359	7.24615	0	
1.8307	-6.96532	5.40511	0	
1.8313	-6.359	5.40511	0	
1.8320	-4.8358	3.56407	0	
1.8327	-2.69148	-0.708093	0	
1.8333	-2.39571	-2.21869	0	
1.8340	-4.52524	-0.708093	0	
1.8347	-7.27588	0.826108	0	
1.8353	-10.9434	1.74663	0	
1.8360	-14.5961	1.13295	0	
1.8367	-15.513	0.826108	0	
1.8373	-14.9067	-0.708093	0	
1.8380	-17.0362	-2.83237	0	
1.8387	-18.2636	-3.75289	0	
1.8393	-16.7404	-2.52553	0	
1.8400	-14.3003	-1.91185	0	
1.8407	-9.71596	-0.99133	0	
1.8413	-2.69148	0.212428	0	
1.8420	2.48445	-0.708093	0	
1.8427	5.54564	-1.29817	0	
1.8433	10.1152	-0.99133	0	
1.8440	12.2596	-1.91185	0	
1.8447	11.0321	-1.91185	0	
1.8453	10.4258	0.826108	0	
1.8460	10.1152	0.826108	0	
1.8467	10.1152	-1.29817	0	
1.8473	9.19836	-0.0944123	0	
1.8480	7.67516	2.66715	0	
1.8487	7.06884	2.36031	0	
1.8493	4.02244	1.43979	0	
1.8500	-0.872513	0.826108	0	
1.8507	-0.872513	-0.99133	0	
1.8513	2.795	-2.52553	0	
1.8520	1.56757	-1.91185	0	
1.8527	0.665476	-0.99133	0	
1.8533	4.02244	-1.60501	0	
1.8540	5.54564	-4.36657	0	
1.8547	2.48445	-6.49085	0	
1.8553	-0.872513	-5.57033	0	
1.8560	-2.39571	-5.57033	0	
1.8567	-0.872513	-7.10453	0	
1.8573	0.961244	-6.49085	0	
1.8580	0.354921	-4.67341	0	
1.8587	-0.251402	-4.67341	0	
1.8593	0.0443651	-4.67341	0	
1.8600	0.354921	-4.67341	0	
1.8607	-0.872513	-4.05973	0	
1.8613	-2.69148	-2.52553	0	
1.8620	-4.8358	1.74663	0	
1.8627	-4.22947	10.2909	0	
1.8633	-1.47884	16.9942	0	
1.8640	-1.78939	16.6874	0	
1.8647	-5.44212	16.4041	0	
1.8653	-5.75267	15.4836	0	
1.8660	-2.69148	8.14306	0	
1.8667	-3.60836	3.56407	0	
1.8673	-5.75267	-0.401252	0	
1.8680	-5.44212	-15.6488	0	
1.8687	-4.8358	-26.6479	0	
1.8693	-3.00204	-17.7967	0	
1.8700	2.18868	-7.71821	0	
1.8707	2.795	-8.63873	0	
1.8713	-2.69148	-9.84249	0	
1.8720	-5.44212	-5.57033	0	
1.8727	-4.8358	-0.401252	0	
1.8733	-5.14635	2.66715	0	
1.8740	-3.60836	1.74663	0	
1.8747	-0.872513	-0.401252	0	
1.8753	-0.251402	-5.87717	0	
1.8760	-1.16828	-13.8314	0	
1.8767	-2.69148	-12.604	0	
1.8773	-5.44212	-5.57033	0	
1.8780	-8.50331	-3.44605	0	
1.8787	-11.8603	-2.52553	0	
1.8793	-11.8603	-0.708093	0	
1.8800	-10.3223	-2.52553	0	
1.8807	-10.6328	-5.26349	0	
1.8813	-11.2392	-8.02505	0	
1.8820	-10.0265	-10.1493	0	
1.8827	-8.19275	-5.87717	0	
1.8833	-7.27588	0.519268	0	
1.8840	-5.44212	2.66715	0	
1.8847	-1.78939	4.79143	0	
1.8853	2.18868	8.75674	0	
1.8860	6.15196	10.5978	0	
1.8867	11.949	11.8251	0	
1.8873	16.8292	10.9046	0	
1.8880	18.3524	6.63247	0	
1.8887	17.4503	1.74663	0	
1.8893	14.6996	-2.83237	0	
1.8900	8.59204	-4.67341	0	
1.8907	4.62876	-1.60501	0	
1.8913	5.23508	3.56407	0	
1.8920	5.54564	4.48459	0	
1.8927	4.3182	4.17775	0	
1.8933	2.795	3.56407	0	
1.8940	-2.08516	3.28083	0	
1.8947	-6.04844	4.79143	0	
1.8953	-3.91892	5.09827	0	
1.8960	-3.00204	4.48459	0	
1.8967	-6.04844	6.32563	0	
1.8973	-7.27588	6.32563	0	
1.8980	-6.359	6.01879	0	
1.8987	-3.91892	9.37042	0	
1.8993	0.354921	10.9046	0	
1.9000	1.87812	8.75674	0	
1.9007	1.87812	9.37042	0	
1.9013	4.3182	6.32563	0	
1.9020	6.46252	-3.13921	0	
1.9027	7.37939	-5.87717	0	
1.9033	11.0321	-4.05973	0	
1.9040	11.949	-8.33189	0	
1.9047	7.98572	-11.0698	0	
1.9053	8.28148	-6.49085	0	
1.9060	11.0321	-2.52553	0	
1.9067	10.4258	-0.99133	0	
1.9073	8.28148	2.66715	0	
1.9080	3.71188	3.28083	0	
1.9087	-2.08516	-1.60501	0	
1.9093	-4.52524	-4.36657	0	
1.9100	-5.75267	-1.60501	0	
1.9107	-10.9434	2.05347	0	
1.9113	-13.3835	1.74663	0	
1.9120	-10.9434	-0.99133	0	
1.9127	-9.4054	-1.29817	0	
1.9133	-9.10963	-0.401252	0	
1.9140	-9.10963	-0.99133	0	
1.9147	-8.19275	-2.52553	0	
1.9153	-4.8358	-2.21869	0	
1.9160	-1.78939	-1.60501	0	
1.9167	-0.872513	-2.83237	0	
1.9173	1.56757	-2.83237	0	
1.9180	5.54564	-0.99133	0	
1.9187	4.92453	-0.708093	0	
1.9193	2.795	-1.60501	0	
1.9200	3.10556	0.212428	0	
1.9207	2.795	0.826108	0	
1.9213	0.354921	-0.99133	0	
1.9220	-2.69148	0.826108	0	
1.9227	-3.60836	3.28083	0	
1.9233	-3.60836	0.826108	0	
1.9240	-6.359	0.212428	0	
1.9247	-10.0265	4.17775	0	
1.9253	-10.0265	4.48459	0	
1.9260	-6.66955	1.74663	0	
1.9267	-4.22947	1.74663	0	
1.9273	0.0443651	1.13295	0	
1.9280	2.795	-0.0944123	0	
1.9287	2.48445	1.13295	0	
1.9293	2.795	0.826108	0	
1.9300	5.54564	-1.91185	0	
1.9307	7.37939	-2.83237	0	
1.9313	6.46252	-1.91185	0	
1.9320	4.62876	0.212428	0	
1.9327	4.02244	2.36031	0	
1.9333	4.62876	2.36031	0	
1.9340	2.18868	0.826108	0	
1.9347	-2.08516	0.519268	0	
1.9353	-3.91892	1.74663	0	
1.9360	-4.52524	2.05347	0	
1.9367	-6.04844	1.74663	0	
1.9373	-5.14635	2.05347	0	
1.9380	-4.22947	2.66715	0	
1.9387	-5.44212	3.56407	0	
1.9393	-5.44212	3.28083	0	
1.9400	-3.31259	1.43979	0	
1.9407	-5.14635	1.13295	0	
1.9413	-7.8822	3.56407	0	
1.9420	-5.14635	3.56407	0	
1.9427	-2.69148	2.36031	0	
1.9433	-5.44212	4.48459	0	
1.9440	-6.04844	7.55299	0	
1.9447	-4.22947	7.24615	0	
1.9453	-3.31259	6.32563	0	
1.9460	-1.78939	6.32563	0	
1.9467	-1.78939	5.71195	0	
1.9473	-3.91892	5.71195	0	
1.9480	-3.60836	7.24615	0	
1.9487	-2.69148	7.24615	0	
1.9493	-3.31259	4.48459	0	
1.9500	-2.08516	2.66715	0	
1.9507	-1.16828	2.66715	0	
1.9513	-3.60836	2.05347	0	
1.9520	-5.14635	2.36031	0	
1.9527	-5.14635	3.28083	0	
1.9533	-5.44212	2.05347	0	
1.9540	-3.60836	-0.99133	0	
1.9547	-2.39571	-1.91185	0	
1.9553	-3.60836	-0.708093	0	
1.9560	-1.78939	-0.0944123	0	
1.9567	2.795	-2.21869	0	
1.9573	4.62876	-4.67341	0	
1.9580	4.92453	-4.67341	0	
1.9587	4.92453	-3.75289	0	
1.9593	3.71188	-6.18401	0	
1.9600	2.795	-8.33189	0	
1.9607	4.3182	-5.87717	0	
1.9613	5.8414	-4.05973	0	
1.9620	5.54564	-4.36657	0	
1.9627	3.40132	-1.29817	0	
1.9633	1.2718	1.13295	0	
1.9640	-0.561958	-0.99133	0	
1.9647	-0.251402	-1.60501	0	
1.9653	1.87812	-0.99133	0	
1.9660	1.87812	-2.52553	0	
1.9667	0.665476	-2.83237	0	
1.9673	3.10556	0.519268	0	
1.9680	5.54564	0.826108	0	
1.9687	3.71188	-0.401252	0	
1.9693	2.795	-0.708093	0	
1.9700	5.54564	-0.99133	0	
1.9707	7.06884	-2.21869	0	
1.9713	7.37939	-2.83237	0	
1.9720	6.46252	-1.91185	0	
1.9727	4.62876	-0.708093	0	
1.9733	5.54564	-0.99133	0	
1.9740	6.15196	-1.91185	0	
1.9747	1.87812	-2.52553	0	
1.9753	-2.08516	-2.83237	0	
1.9760	-0.872513	-2.52553	0	
1.9767	1.87812	-1.91185	0	
1.9773	3.71188	-3.75289	0	
1.9780	5.23508	-6.49085	0	
1.9787	2.48445	-5.26349	0	
1.9793	-0.872513	-2.83237	0	
1.9800	0.961244	-1.91185	0	
1.9807	2.18868	-3.75289	0	
1.9813	1.87812	-5.57033	0	
1.9820	4.02244	-3.75289	0	
1.9827	6.46252	0.826108	0	
1.9833	5.54564	1.43979	0	
1.9840	6.46252	-0.708093	0	
1.9847	7.98572	1.74663	0	
1.9853	6.46252	7.24615	0	
1.9860	4.92453	7.83622	0	
1.9867	4.92453	3.56407	0	
1.9873	3.71188	0.826108	0	
1.9880	0.961244	3.28083	0	
1.9887	-0.872513	2.97399	0	
1.9893	-0.251402	-0.99133	0	
1.9900	-0.561958	-0.401252	0	
1.9907	-3.00204	3.87091	0	
1.9913	-4.52524	3.56407	0	
1.9920	-5.44212	-0.708093	0	
1.9927	-9.10963	-3.13921	0	
1.9933	-11.8603	-4.67341	0	
1.9940	-11.8603	-4.67341	0	
1.9947	-15.8235	-3.75289	0	
1.9953	-18.5742	-3.75289	0	
1.9960	-15.8235	-3.44605	0	
1.9967	-13.9898	-2.83237	0	
1.9973	-14.5961	-4.98025	0	
1.9980	-12.156	-8.33189	0	
1.9987	-9.10963	-7.41137	0	
1.9993	-3.91892	-5.57033	0	
2.0000	3.71188	-5.57033	0	
2.0007	4.02244	-7.10453	0	
2.0013	-1.78939	-7.71821	0	
2.0020	-0.872513	-6.18401	0	
2.0027	4.02244	-4.36657	0	
2.0033	4.92453	-3.75289	0	
2.0040	3.40132	-4.36657	0	
2.0047	2.48445	-4.05973	0	
2.0053	0.665476	-4.05973	0	
2.0060	0.354921	-3.75289	0	
2.0067	2.795	-1.29817	0	
2.0073	3.40132	0.519268	0	
2.0080	0.961244	-0.401252	0	
2.0087	0.0443651	-2.21869	0	
2.0093	2.48445	-3.44605	0	
2.0100	4.62876	-3.75289	0	
2.0107	4.92453	-2.83237	0	
2.0113	4.3182	-2.52553	0	
2.0120	5.23508	-2.52553	0	
2.0127	4.3182	-0.99133	0	
2.0133	0.961244	0.826108	0	
2.0140	2.18868	-0.0944123	0	
2.0147	6.15196	-1.91185	0	
2.0153	3.71188	-1.60501	0	
2.0160	-0.872513	-2.83237	0	
2.0167	-0.872513	-4.67341	0	
2.0173	-1.47884	-4.67341	0	
2.0180	-5.14635	-3.13921	0	
2.0187	-5.44212	-1.29817	0	
2.0193	-3.91892	0.826108	0	
2.0200	-6.359	-0.0944123	0	
2.0207	-9.71596	-1.29817	0	
2.0213	-10.3223	-0.0944123	0	
2.0220	-7.58643	-0.0944123	0	
2.0227	-2.69148	-0.708093	0	
2.0233	0.961244	1.43979	0	
2.0240	1.87812	2.05347	0	
2.0247	2.18868	0.519268	0	
2.0253	1.87812	0.826108	0	
2.0260	1.87812	2.05347	0	
2.0267	3.71188	3.56407	0	
2.0273	6.46252	4.48459	0	
2.0280	7.98572	2.36031	0	
2.0287	7.67516	1.74663	0	
2.0293	6.75828	2.66715	0	
2.0300	6.15196	-0.0944123	0	
2.0307	4.62876	-0.0944123	0	
2.0313	2.48445	3.56407	0	
2.0320	1.87812	0.826108	0	
2.0327	1.87812	-4.36657	0	
2.0333	0.0443651	-1.29817	0	
2.0340	-1.78939	2.05347	0	
2.0347	-1.78939	0.826108	0	
2.0353	-2.08516	1.74663	0	
2.0360	-2.39571	0.826108	0	
2.0367	-5.44212	-3.13921	0	
2.0373	-10.6328	-2.52553	0	
2.0380	-11.8603	-1.29817	0	
2.0387	-9.10963	-3.44605	0	
2.0393	-8.19275	-0.99133	0	
2.0400	-8.79908	3.56407	0	
2.0407	-9.10963	2.05347	0	
2.0413	-10.6328	-0.0944123	0	
2.0420	-12.4666	1.43979	0	
2.0427	-12.7624	-0.99133	0	
2.0433	-14.5961	-2.52553	0	
2.0440	-17.3468	0.826108	0	
2.0447	-17.3468	1.43979	0	
2.0453	-16.1193	-0.401252	0	
2.0460	-14.5961	1.74663	0	
2.0467	-11.8603	3.56407	0	
2.0473	-11.2392	1.74663	0	
2.0480	-12.156	2.05347	0	
2.0487	-7.8822	3.28083	0	
2.0493	-1.78939	2.66715	0	
2.0500	0.354921	2.97399	0	
2.0507	4.92453	3.56407	0	
2.0513	12.2596	1.13295	0	
2.0520	15.6165	-0.0944123	0	
2.0527	17.746	0.826108	0	
2.0533	24.1642	0.826108	0	
2.0540	27.5211	-0.0944123	0	
2.0547	25.0663	0.212428	0	
2.0553	22.9368	-0.0944123	0	
2.0560	22.0199	-1.29817	0	
2.0567	18.9735	-1.29817	0	
2.0573	16.8292	-0.708093	0	
2.0580	15.9123	-1.60501	0	
2.0587	11.949	-2.83237	0	
2.0593	5.8414	-1.29817	0	
2.0600	2.795	0.212428	0	
2.0607	1.2718	-0.99133	0	
2.0613	-0.872513	-2.83237	0	
2.0620	-2.08516	-2.83237	0	
2.0627	-2.69148	0.519268	0	
2.0633	-3.31259	2.66715	0	
2.0640	-2.08516	1.13295	0	
2.0647	-2.39571	0.519268	0	
2.0653	-5.44212	2.36031	0	
2.0660	-5.14635	2.66715	0	
2.0667	-2.69148	3.56407	0	
2.0673	-5.44212	7.55299	0	
2.0680	-6.359	7.24615	0	
2.0687	-4.22947	3.56407	0	
2.0693	-6.66955	4.48459	0	
2.0700	-9.4054	7.83622	0	
2.0707	-5.75267	5.40511	0	
2.0713	-2.69148	1.13295	0	
2.0720	-2.69148	-0.99133	0	
2.0727	-0.561958	-0.99133	0	
2.0733	0.961244	-1.29817	0	
2.0740	-0.561958	-2.83237	0	
2.0747	0.665476	-3.75289	0	
2.0753	3.40132	-1.60501	0	
2.0760	2.795	-0.0944123	0	
2.0767	1.2718	-4.67341	0	
2.0773	2.795	-10.1493	0	
2.0780	5.23508	-10.1493	0	
2.0787	5.54564	-5.57033	0	
2.0793	6.15196	-1.60501	0	
2.0800	6.46252	-0.401252	0	
2.0807	4.02244	0.519268	0	
2.0813	2.795	2.97399	0	
2.0820	6.46252	3.28083	0	
2.0827	8.59204	0.826108	0	
2.0833	4.62876	0.826108	0	
2.0840	1.56757	3.56407	0	
2.0847	2.795	3.56407	0	
2.0853	3.71188	2.97399	0	
2.0860	2.795	2.66715	0	
2.0867	1.87812	0.826108	0	
2.0873	1.87812	0.212428	0	
2.0880	2.48445	0.212428	0	
2.0887	1.56757	-0.0944123	0	
2.0893	0.0443651	0.519268	0	
2.0900	0.0443651	0.826108	0	
2.0907	-1.47884	-0.99133	0	
2.0913	-4.52524	-2.52553	0	
2.0920	-4.8358	-1.60501	0	
2.0927	-3.60836	-1.29817	0	
2.0933	-3.91892	-0.99133	0	
2.0940	-1.78939	-0.401252	0	
2.0947	2.48445	-1.91185	0	
2.0953	2.795	-3.75289	0	
2.0960	1.87812	-4.98025	0	
2.0967	2.48445	-4.98025	0	
2.0973	2.795	-2.83237	0	
2.0980	3.40132	-0.99133	0	
2.0987	3.71188	-1.91185	0	
2.0993	-2.08516	-1.91185	0	
2.1000	-9.71596	1.74663	0	
2.1007	-10.9434	2.66715	0	
2.1013	-10.9434	1.43979	0	
2.1020	-12.4666	1.74663	0	
2.1027	-10.0265	2.36031	0	
2.1033	-6.359	0.826108	0	
2.1040	-8.19275	0.826108	0	
2.1047	-8.79908	2.05347	0	
2.1053	-4.22947	2.05347	0	
2.1060	-0.872513	2.66715	0	
2.1067	3.10556	4.79143	0	
2.1073	9.19836	3.87091	0	
2.1080	9.19836	-0.0944123	0	
2.1087	7.37939	-0.99133	0	
2.1093	8.9026	-0.99133	0	
2.1100	8.28148	-2.83237	0	
2.1107	5.8414	-3.13921	0	
2.1113	6.46252	-0.99133	0	
2.1120	3.71188	-0.708093	0	
2.1127	-0.872513	-0.0944123	0	
2.1133	-1.78939	0.212428	0	
2.1140	-1.78939	-3.13921	0	
2.1147	-1.78939	-3.44605	0	
2.1153	-2.08516	1.74663	0	
2.1160	-5.44212	1.74663	0	
2.1167	-7.27588	-1.91185	0	
2.1173	-4.8358	-0.401252	0	
2.1180	-5.75267	2.05347	0	
2.1187	-8.19275	1.74663	0	
2.1193	-6.04844	1.74663	0	
2.1200	-4.52524	1.74663	0	
2.1207	-4.52524	-0.0944123	0	
2.1213	-1.47884	-1.60501	0	
2.1220	-0.872513	-1.29817	0	
2.1227	-4.52524	1.13295	0	
2.1233	-3.00204	2.66715	0	
2.1240	1.2718	0.519268	0	
2.1247	0.665476	-0.99133	0	
2.1253	0.961244	0.826108	0	
2.1260	4.62876	1.74663	0	
2.1267	4.92453	3.28083	0	
2.1273	3.71188	4.79143	0	
2.1280	6.15196	1.74663	0	
2.1287	8.59204	-1.29817	0	
2.1293	8.28148	-0.0944123	0	
2.1300	7.06884	1.74663	0	
2.1307	5.54564	1.74663	0	
2.1313	1.2718	1.13295	0	
2.1320	-2.69148	0.826108	0	
2.1327	-3.60836	-1.29817	0	
2.1333	-5.44212	-4.36657	0	
2.1340	-8.19275	-4.98025	0	
2.1347	-7.8822	-2.21869	0	
2.1353	-9.10963	-1.91185	0	
2.1360	-14.5961	-4.05973	0	
2.1367	-16.4299	-3.75289	0	
2.1373	-14.3003	-3.75289	0	
2.1380	-14.3003	-4.67341	0	
2.1387	-14.5961	-4.36657	0	
2.1393	-12.7624	-3.75289	0	
2.1400	-11.8603	-3.75289	0	
2.1407	-11.5497	-2.21869	0	
2.1413	-7.27588	-2.21869	0	
2.1420	-3.31259	-3.75289	0	
2.1427	-2.69148	-2.21869	0	
2.1433	-1.47884	1.74663	0	
2.1440	2.18868	2.66715	0	
2.1447	4.62876	-0.401252	0	
2.1453	6.15196	-1.91185	0	
2.1460	8.28148	1.43979	0	
2.1467	11.6384	4.48459	0	
2.1473	12.8659	3.56407	0	
2.1480	12.5553	2.36031	0	
2.1487	12.2596	1.13295	0	
2.1493	12.8659	-0.0944123	0	
2.1500	13.1764	-0.708093	0	
2.1507	12.2596	-0.708093	0	
2.1513	12.8659	-0.0944123	0	
2.1520	13.1764	1.74663	0	
2.1527	11.0321	2.36031	0	
2.1533	6.46252	-0.401252	0	
2.1540	2.795	-2.21869	0	
2.1547	0.961244	-1.91185	0	
2.1553	-1.16828	-0.99133	0	
2.1560	-3.31259	-0.401252	0	
2.1567	-5.14635	-0.0944123	0	
2.1573	-8.19275	-0.0944123	0	
2.1580	-10.0265	-0.99133	0	
2.1587	-9.4054	-0.99133	0	
2.1593	-9.4054	-0.0944123	0	
2.1600	-10.6328	0.826108	0	
2.1607	-10.0265	-0.0944123	0	
2.1613	-9.10963	1.13295	0	
2.1620	-8.19275	2.66715	0	
2.1627	-5.44212	1.74663	0	
2.1633	-2.69148	2.66715	0	
2.1640	-2.08516	4.48459	0	
2.1647	-0.251402	1.43979	0	
2.1653	3.10556	-1.60501	0	
2.1660	6.75828	-0.99133	0	
2.1667	7.98572	-0.0944123	0	
2.1673	7.98572	1.43979	0	
2.1680	10.7364	1.74663	0	
2.1687	13.7828	-1.91185	0	
2.1693	13.1764	-1.91185	0	
2.1700	10.1152	-0.708093	0	
2.1707	8.28148	-3.13921	0	
2.1713	7.37939	-2.52553	0	
2.1720	8.28148	1.74663	0	
2.1727	8.9026	1.74663	0	
2.1733	7.06884	0.519268	0	
2.1740	5.54564	0.212428	0	
2.1747	3.71188	-1.60501	0	
2.1753	0.961244	-2.21869	0	
2.1760	-0.251402	-0.99133	0	
2.1767	-2.69148	-3.44605	0	
2.1773	-6.359	-4.67341	0	
2.1780	-4.8358	-2.83237	0	
2.1787	-1.78939	-2.21869	0	
2.1793	-4.52524	-3.44605	0	
2.1800	-7.27588	-2.52553	0	
2.1807	-7.8822	-0.99133	0	
2.1813	-10.0265	-0.401252	0	
2.1820	-10.9434	0.519268	0	
2.1827	-9.71596	0.826108	0	
2.1833	-10.3223	1.13295	0	
2.1840	-11.5497	1.74663	0	
2.1847	-10.9434	2.05347	0	
2.1853	-11.2392	2.05347	0	
2.1860	-11.8603	1.74663	0	
2.1867	-8.50331	1.74663	0	
2.1873	-6.96532	1.13295	0	
2.1880	-9.10963	-0.99133	0	
2.1887	-6.96532	-3.13921	0	
2.1893	-2.08516	-3.13921	0	
2.1900	-1.78939	-3.13921	0	
2.1907	-2.69148	-5.26349	0	
2.1913	-0.561958	-6.49085	0	
2.1920	3.40132	-7.41137	0	
2.1927	9.81947	-7.71821	0	
2.1933	13.7828	-5.26349	0	
2.1940	11.3427	-3.75289	0	
2.1947	10.1152	-5.57033	0	
2.1953	13.7828	-4.05973	0	
2.1960	12.5553	0.519268	0	
2.1967	8.59204	1.13295	0	
2.1973	9.50892	-0.0944123	0	
2.1980	8.28148	1.43979	0	
2.1987	1.87812	2.97399	0	
2.1993	-0.561958	1.74663	0	
2.2000	0.0443651	0.212428	0	
2.2007	-1.78939	1.43979	0	
2.2013	-1.78939	2.66715	0	
2.2020	-0.561958	0.212428	0	
2.2027	-3.60836	-0.401252	0	
2.2033	-7.58643	4.17775	0	
2.2040	-8.19275	6.63247	0	
2.2047	-8.19275	5.09827	0	
2.2053	-7.27588	4.17775	0	
2.2060	-2.69148	2.66715	0	
2.2067	2.795	1.74663	0	
2.2073	5.54564	3.56407	0	
2.2080	5.54564	3.87091	0	
2.2087	4.92453	1.74663	0	
2.2093	5.8414	0.826108	0	
2.2100	5.23508	0.519268	0	
2.2107	1.87812	0.519268	0	
2.2113	1.87812	0.212428	0	
2.2120	4.62876	-1.29817	0	
2.2127	4.02244	-2.21869	0	
2.2133	2.795	-2.21869	0	
2.2140	2.795	-3.75289	0	
2.2147	2.795	-4.05973	0	
2.2153	2.795	-1.60501	0	
2.2160	4.3182	-0.401252	0	
2.2167	3.71188	0.826108	0	
2.2173	-0.561958	1.74663	0	
2.2180	-3.31259	-0.401252	0	
2.2187	-2.08516	-0.0944123	0	
2.2193	-1.47884	2.66715	0	
2.2200	-3.60836	2.66715	0	
2.2207	-3.60836	1.74663	0	
2.2213	-0.561958	2.36031	0	
2.2220	1.2718	-0.0944123	0	
2.2227	1.2718	-2.52553	0	
2.2233	0.961244	-0.0944123	0	
2.2240	0.961244	1.43979	0	
2.2247	2.795	1.43979	0	
2.2253	4.62876	3.28083	0	
2.2260	2.795	3.28083	0	
2.2267	2.795	1.43979	0	
2.2273	4.92453	1.74663	0	
2.2280	6.46252	3.28083	0	
2.2287	4.3182	3.56407	0	
2.2293	1.2718	2.66715	0	
2.2300	-0.251402	0.519268	0	
2.2307	1.87812	0.826108	0	
2.2313	5.23508	1.13295	0	
2.2320	4.62876	-2.52553	0	
2.2327	3.71188	-4.67341	0	
2.2333	6.46252	-1.60501	0	
2.2340	4.62876	0.212428	0	
2.2347	-1.16828	-0.0944123	0	
2.2353	-0.872513	0.826108	0	
2.2360	1.87812	-0.0944123	0	
2.2367	-0.872513	-3.75289	0	
2.2373	-3.31259	-2.83237	0	
2.2380	-1.78939	-1.29817	0	
2.2387	-2.39571	-4.67341	0	
2.2393	-3.60836	-5.26349	0	
2.2400	-4.52524	-0.401252	0	
2.2407	-7.58643	1.43979	0	
2.2413	-8.50331	-0.401252	0	
2.2420	-6.96532	0.826108	0	
2.2427	-7.8822	4.48459	0	
2.2433	-10.6328	5.40511	0	
2.2440	-12.4666	3.87091	0	
2.2447	-14.5961	3.56407	0	
2.2453	-15.513	3.56407	0	
2.2460	-13.9898	2.66715	0	
2.2467	-12.7624	2.66715	0	
2.2473	-10.0265	4.48459	0	
2.2480	-4.52524	2.97399	0	
2.2487	-3.31259	0.826108	0	
2.2493	-4.52524	-0.0944123	0	
2.2500	-0.251402	-0.401252	0	
2.2507	6.15196	-0.0944123	0	
2.2513	7.37939	0.826108	0	
2.2520	5.23508	-1.60501	0	
2.2527	4.62876	-4.67341	0	
2.2533	5.8414	-1.91185	0	
2.2540	5.23508	-0.0944123	0	
2.2547	3.71188	-4.36657	0	
2.2553	2.795	-6.49085	0	
2.2560	0.665476	-4.05973	0	
2.2567	-0.872513	-3.75289	0	
2.2573	-0.251402	-4.67341	0	
2.2580	-1.16828	-3.13921	0	
2.2587	-3.00204	-1.60501	0	
2.2593	-3.00204	-1.60501	0	
2.2600	-2.69148	-0.99133	0	
2.2607	-2.69148	-0.0944123	0	
2.2613	-0.872513	-0.0944123	0	
2.2620	0.0443651	-0.99133	0	
2.2627	-1.47884	-0.708093	0	
2.2633	-2.08516	0.519268	0	
2.2640	-1.16828	0.826108	0	
2.2647	-0.561958	1.43979	0	
2.2653	-0.251402	3.56407	0	
2.2660	-1.16828	6.63247	0	
2.2667	-3.00204	6.63247	0	
2.2673	-2.69148	5.40511	0	
2.2680	-0.872513	6.32563	0	
2.2687	-0.872513	6.32563	0	
2.2693	-1.78939	2.97399	0	
2.2700	-2.08516	1.13295	0	
2.2707	-3.60836	1.74663	0	
2.2713	-6.359	0.826108	0	
2.2720	-8.19275	-1.91185	0	
2.2727	-8.19275	-2.83237	0	
2.2733	-10.0265	-1.91185	0	
2.2740	-13.3835	-3.75289	0	
2.2747	-15.513	-4.67341	0	
2.2753	-16.4299	-2.83237	0	
2.2760	-18.87	-2.83237	0	
2.2767	-21.0143	-4.98025	0	
2.2773	-19.1805	-3.44605	0	
2.2780	-16.4299	-0.99133	0	
2.2787	-13.0729	-1.60501	0	
2.2793	-9.10963	-0.0944123	0	
2.2800	-5.14635	2.97399	0	
2.2807	-0.872513	2.36031	0	
2.2813	3.10556	0.826108	0	
2.2820	6.75828	-0.0944123	0	
2.2827	11.0321	-0.99133	0	
2.2833	16.2228	1.74663	0	
2.2840	19.2692	4.48459	0	
2.2847	18.0566	1.74663	0	
2.2853	16.5334	0.826108	0	
2.2860	18.0566	4.48459	0	
2.2867	21.103	4.17775	0	
2.2873	23.8536	0.826108	0	
2.2880	23.8536	0.826108	0	
2.2887	22.0199	0.826108	0	
2.2893	18.9735	1.43979	0	
2.2900	15.306	3.56407	0	
2.2907	12.8659	3.56407	0	
2.2913	12.5553	1.43979	0	
2.2920	10.4258	0.519268	0	
2.2927	6.46252	0.826108	0	
2.2933	4.92453	1.74663	0	
2.2940	4.92453	3.56407	0	
2.2947	2.795	3.56407	0	
2.2953	-0.561958	0.826108	0	
2.2960	-1.47884	-1.91185	0	
2.2967	-2.69148	-1.60501	0	
2.2973	-3.91892	-1.60501	0	
2.2980	-4.8358	-3.44605	0	
2.2987	-5.44212	-3.75289	0	
2.2993	-4.52524	-1.91185	0	
2.3000	-4.22947	1.13295	0	
2.3007	-6.04844	0.826108	0	
2.3013	-6.359	-2.21869	0	
2.3020	-5.14635	-2.83237	0	
2.3027	-5.44212	-0.401252	0	
2.3033	-4.52524	-0.0944123	0	
2.3040	-4.22947	-0.99133	0	
2.3047	-6.359	-1.60501	0	
2.3053	-6.359	-1.91185	0	
2.3060	-3.91892	-1.60501	0	
2.3067	-4.52524	-0.0944123	0	
2.3073	-5.44212	-0.708093	0	
2.3080	-5.44212	-2.21869	0	
2.3087	-7.27588	-2.21869	0	
2.3093	-6.96532	-1.60501	0	
2.3100	-5.44212	-0.708093	0	
2.3107	-8.19275	-0.0944123	0	
2.3113	-6.359	-2.21869	0	
2.3120	2.48445	-4.67341	0	
2.3127	4.02244	-4.05973	0	
2.3133	1.2718	-4.05973	0	
2.3140	4.3182	-5.26349	0	
2.3147	6.46252	-3.44605	0	
2.3153	4.92453	-1.91185	0	
2.3160	8.28148	-4.67341	0	
2.3167	10.1152	-6.18401	0	
2.3173	6.46252	-4.05973	0	
2.3180	7.06884	-2.21869	0	
2.3187	8.59204	-1.91185	0	
2.3193	5.54564	-3.75289	0	
2.3200	5.23508	-1.91185	0	
2.3207	5.8414	2.05347	0	
2.3213	1.2718	2.05347	0	
2.3220	-1.78939	-0.708093	0	
2.3227	0.0443651	1.43979	0	
2.3233	-2.08516	2.97399	0	
2.3240	-6.359	0.519268	0	
2.3247	-5.14635	0.826108	0	
2.3253	-1.78939	4.17775	0	
2.3260	0.0443651	5.71195	0	
2.3267	0.961244	5.40511	0	
2.3273	1.87812	2.66715	0	
2.3280	2.795	-0.401252	0	
2.3287	3.71188	0.212428	0	
2.3293	4.92453	3.56407	0	
2.3300	6.46252	1.74663	0	
2.3307	7.06884	-1.91185	0	
2.3313	6.15196	-1.91185	0	
2.3320	5.23508	-0.99133	0	
2.3327	5.54564	-1.60501	0	
2.3333	6.15196	-1.91185	0	
2.3340	5.23508	-2.83237	0	
2.3347	4.92453	-4.05973	0	
2.3353	6.75828	-2.83237	0	
2.3360	8.28148	0.519268	0	
2.3367	6.75828	-0.708093	0	
2.3373	4.3182	-2.52553	0	
2.3380	4.3182	-0.0944123	0	
2.3387	3.71188	0.826108	0	
2.3393	2.18868	-1.29817	0	
2.3400	2.795	-0.401252	0	
2.3407	2.795	2.36031	0	
2.3413	-3.60836	0.519268	0	
2.3420	-7.27588	-1.91185	0	
2.3427	-5.44212	-2.21869	0	
2.3433	-4.8358	-2.21869	0	
2.3440	-5.44212	-1.91185	0	
2.3447	-3.60836	0.212428	0	
2.3453	-3.31259	2.05347	0	
2.3460	-5.75267	1.74663	0	
2.3467	-4.52524	0.826108	0	
2.3473	-0.872513	1.74663	0	
2.3480	0.0443651	1.43979	0	
2.3487	0.961244	-1.91185	0	
2.3493	2.48445	-3.75289	0	
2.3500	2.795	-1.29817	0	
2.3507	0.0443651	0.826108	0	
2.3513	-2.69148	-0.99133	0	
2.3520	-3.91892	-2.83237	0	
2.3527	-4.22947	-3.13921	0	
2.3533	-4.8358	-2.52553	0	
2.3540	-8.79908	-0.99133	0	
2.3547	-12.7624	-0.0944123	0	
2.3553	-12.7624	-2.21869	0	
2.3560	-11.5497	-4.67341	0	
2.3567	-13.6792	-4.67341	0	
2.3573	-16.7404	-2.83237	0	
2.3580	-15.513	-1.60501	0	
2.3587	-12.7624	-1.91185	0	
2.3593	-10.9434	-1.29817	0	
2.3600	-6.66955	0.826108	0	
2.3607	0.354921	1.13295	0	
2.3613	4.62876	0.212428	0	
2.3620	4.92453	0.212428	0	
2.3627	2.48445	-0.0944123	0	
2.3633	-1.78939	-0.401252	0	
2.3640	-4.22947	1.13295	0	
2.3647	-3.60836	2.97399	0	
2.3653	-2.69148	2.36031	0	
2.3660	-3.00204	2.05347	0	
2.3667	-3.00204	2.97399	0	
2.3673	-4.22947	2.36031	0	
2.3680	-5.14635	0.519268	0	
2.3687	-2.39571	0.212428	0	
2.3693	0.961244	-0.0944123	0	
2.3700	2.48445	-0.708093	0	
2.3707	5.54564	-1.29817	0	
2.3713	10.7364	-3.75289	0	
2.3720	11.949	-4.98025	0	
2.3727	11.3427	-3.75289	0	
2.3733	12.2596	-3.44605	0	
2.3740	14.9954	-3.75289	0	
2.3747	17.4503	-1.91185	0	
2.3753	16.5334	-0.0944123	0	
2.3760	11.949	-0.401252	0	
2.3767	8.9026	0.826108	0	
2.3773	6.46252	2.97399	0	
2.3780	2.795	4.48459	0	
2.3787	2.18868	4.79143	0	
2.3793	3.10556	4.48459	0	
2.3800	0.0443651	3.56407	0	
2.3807	-1.47884	3.56407	0	
2.3813	2.795	2.97399	0	
2.3820	1.56757	3.87091	0	
2.3827	-4.52524	6.63247	0	
2.3833	-4.52524	5.71195	0	
2.3840	-2.08516	1.74663	0	
2.3847	-1.47884	0.826108	0	
2.3853	0.0443651	1.74663	0	
2.3860	0.961244	1.74663	0	
2.3867	0.961244	2.05347	0	
2.3873	3.71188	3.87091	0	
2.3880	6.46252	2.97399	0	
2.3887	7.67516	-0.0944123	0	
2.3893	8.28148	-0.99133	0	
2.3900	6.46252	0.212428	0	
2.3907	1.56757	0.212428	0	
2.3913	-1.47884	0.826108	0	
2.3920	-0.872513	1.74663	0	
2.3927	-1.47884	0.519268	0	
2.3933	-3.31259	-1.60501	0	
2.3940	-3.60836	-1.29817	0	
2.3947	-3.60836	-1.91185	0	
2.3953	-3.60836	-2.83237	0	
2.3960	-4.8358	-1.60501	0	
2.3967	-6.359	-2.21869	0	
2.3973	-7.58643	-4.67341	0	
2.3980	-8.79908	-3.13921	0	
2.3987	-9.71596	0.212428	0	
2.3993	-10.0265	0.519268	0	
2.4000	-10.0265	-0.99133	0	
2.4007	-9.10963	-2.21869	0	
2.4013	-7.8822	-2.83237	0	
2.4020	-8.19275	-1.29817	0	
2.4027	-11.2392	0.519268	0	
2.4033	-13.3835	-0.0944123	0	
2.4040	-12.7624	-1.29817	0	
2.4047	-12.156	-0.401252	0	
2.4053	-12.7624	-0.0944123	0	
2.4060	-13.3835	0.212428	0	
2.4067	-11.8603	2.66715	0	
2.4073	-7.8822	3.28083	0	
2.4080	-4.8358	0.826108	0	
2.4087	-6.359	0.826108	0	
2.4093	-7.58643	0.826108	0	
2.4100	-4.8358	-1.29817	0	
2.4107	-0.251402	-1.29817	0	
2.4113	2.795	-0.708093	0	
2.4120	2.48445	-3.75289	0	
2.4127	0.961244	-5.57033	0	
2.4133	0.0443651	-4.98025	0	
2.4140	-1.78939	-4.67341	0	
2.4147	-4.22947	-4.67341	0	
2.4153	-4.52524	-4.98025	0	
2.4160	-3.60836	-7.41137	0	
2.4167	-2.69148	-7.10453	0	
2.4173	-1.78939	-4.05973	0	
2.4180	-0.872513	-2.83237	0	
2.4187	0.0443651	-2.21869	0	
2.4193	0.961244	-3.75289	0	
2.4200	1.2718	-5.26349	0	
2.4207	-0.561958	-2.52553	0	
2.4213	-1.16828	0.519268	0	
2.4220	0.354921	-0.401252	0	
2.4227	1.87812	1.13295	0	
2.4233	1.87812	5.71195	0	
2.4240	2.18868	5.09827	0	
2.4247	1.2718	1.43979	0	
2.4253	-2.08516	1.74663	0	
2.4260	-3.91892	3.56407	0	
2.4267	-2.39571	4.17775	0	
2.4273	-2.69148	4.48459	0	
2.4280	-4.52524	4.48459	0	
2.4287	-3.60836	3.56407	0	
2.4293	-1.78939	4.48459	0	
2.4300	-0.251402	5.09827	0	
2.4307	3.10556	4.48459	0	
2.4313	4.62876	3.28083	0	
2.4320	0.961244	0.826108	0	
2.4327	-0.872513	-1.60501	0	
2.4333	1.2718	-2.83237	0	
2.4340	2.795	-2.83237	0	
2.4347	4.62876	-1.29817	0	
2.4353	5.8414	-0.0944123	0	
2.4360	3.71188	-0.99133	0	
2.4367	1.87812	-2.52553	0	
2.4373	3.10556	-2.21869	0	
2.4380	3.40132	-1.91185	0	
2.4387	1.56757	-1.91185	0	
2.4393	1.87812	-2.83237	0	
2.4400	4.3182	-2.83237	0	
2.4407	4.02244	-2.83237	0	
2.4413	2.48445	-1.29817	0	
2.4420	3.10556	1.74663	0	
2.4427	4.62876	3.56407	0	
2.4433	4.62876	1.43979	0	
2.4440	5.8414	-0.401252	0	
2.4447	7.67516	0.826108	0	
2.4453	7.06884	0.212428	0	
2.4460	7.37939	-1.91185	0	
2.4467	6.75828	-0.708093	0	
2.4473	2.795	1.13295	0	
2.4480	2.795	-0.99133	0	
2.4487	7.37939	-2.83237	0	
2.4493	7.67516	-1.60501	0	
2.4500	4.62876	-1.29817	0	
2.4507	3.40132	-2.21869	0	
2.4513	1.56757	-2.21869	0	
2.4520	-1.78939	-1.29817	0	
2.4527	-3.91892	-0.99133	0	
2.4533	-4.8358	-1.60501	0	
2.4540	-4.8358	-2.83237	0	
2.4547	-2.39571	-3.44605	0	
2.4553	-0.872513	-4.36657	0	
2.4560	-3.60836	-5.26349	0	
2.4567	-5.14635	-4.36657	0	
2.4573	-3.91892	-4.05973	0	
2.4580	-3.91892	-4.67341	0	
2.4587	-4.22947	-3.75289	0	
2.4593	-2.69148	-2.83237	0	
2.4600	-2.69148	-5.26349	0	
2.4607	-2.39571	-5.57033	0	
2.4613	0.354921	-2.21869	0	
2.4620	0.0443651	-1.60501	0	
2.4627	-1.78939	-3.75289	0	
2.4633	0.0443651	-2.83237	0	
2.4640	2.795	0.212428	0	
2.4647	2.18868	-0.0944123	0	
2.4653	3.71188	-1.91185	0	
2.4660	5.54564	-0.0944123	0	
2.4667	4.62876	4.17775	0	
2.4673	4.62876	4.48459	0	
2.4680	6.46252	3.28083	0	
2.4687	7.37939	4.79143	0	
2.4693	8.28148	5.40511	0	
2.4700	9.50892	3.28083	0	
2.4707	8.59204	3.28083	0	
2.4713	6.15196	3.56407	0	
2.4720	4.02244	0.519268	0	
2.4727	3.71188	-1.91185	0	
2.4733	4.62876	-1.29817	0	
2.4740	3.10556	1.13295	0	
2.4747	2.795	3.87091	0	
2.4753	6.15196	4.48459	0	
2.4760	6.46252	2.36031	0	
2.4767	2.18868	0.519268	0	
2.4773	0.665476	-0.401252	0	
2.4780	0.961244	-0.0944123	0	
2.4787	-1.78939	1.74663	0	
2.4793	-4.22947	1.43979	0	
2.4800	-3.60836	-1.29817	0	
2.4807	-4.22947	-0.0944123	0	
2.4813	-5.75267	3.56407	0	
2.4820	-5.14635	3.56407	0	
2.4827	-3.31259	1.13295	0	
2.4833	-1.78939	1.74663	0	
2.4840	-1.47884	3.87091	0	
2.4847	-1.78939	6.32563	0	
2.4853	-0.561958	7.55299	0	
2.4860	2.795	8.14306	0	
2.4867	3.71188	9.37042	0	
2.4873	1.87812	6.93931	0	
2.4880	2.18868	3.56407	0	
2.4887	1.87812	4.79143	0	
2.4893	-2.39571	5.09827	0	
2.4900	-6.359	1.74663	0	
2.4907	-8.50331	2.05347	0	
2.4913	-14.5961	2.97399	0	
2.4920	-19.4763	1.13295	0	
2.4927	-19.4763	1.74663	0	
2.4933	-19.4763	2.05347	0	
2.4940	-20.3932	-1.91185	0	
2.4947	-17.9531	-3.75289	0	
2.4953	-13.3835	-4.67341	0	
2.4960	-11.8603	-8.33189	0	
2.4967	-11.5497	-7.71821	0	
2.4973	-8.19275	-5.26349	0	
2.4980	-1.78939	-5.57033	0	
2.4987	2.48445	-5.26349	0	
2.4993	3.71188	-4.36657	0	
2.5000	5.23508	-5.26349	0	
2.5007	8.28148	-3.75289	0	
2.5013	12.5553	0.212428	0	
2.5020	14.6996	0.519268	0	
2.5027	12.8659	0.519268	0	
2.5033	13.4722	3.87091	0	
2.5040	14.6996	6.32563	0	
2.5047	11.949	5.40511	0	
2.5053	8.59204	4.48459	0	
2.5060	8.9026	4.79143	0	
2.5067	7.67516	4.79143	0	
2.5073	6.46252	6.01879	0	
2.5080	7.98572	6.32563	0	
2.5087	6.46252	3.87091	0	
2.5093	3.71188	1.74663	0	
2.5100	4.3182	1.74663	0	
2.5107	4.62876	0.519268	0	
2.5113	2.18868	-0.708093	0	
2.5120	-1.78939	-0.0944123	0	
2.5127	-5.75267	-0.708093	0	
2.5133	-6.96532	-1.91185	0	
2.5140	-6.96532	-0.0944123	0	
2.5147	-9.71596	1.43979	0	
2.5153	-12.7624	-0.0944123	0	
2.5160	-12.4666	-0.401252	0	
2.5167	-14.3003	-1.60501	0	
2.5173	-18.5742	-4.05973	0	
2.5180	-18.87	-5.26349	0	
2.5187	-15.2172	-5.26349	0	
2.5193	-12.156	-4.67341	0	
2.5200	-10.9434	-3.75289	0	
2.5207	-9.10963	-4.67341	0	
2.5213	-6.04844	-6.49085	0	
2.5220	-3.31259	-5.57033	0	
2.5227	0.0443651	-3.75289	0	
2.5233	3.71188	-3.75289	0	
2.5240	5.23508	-3.13921	0	
2.5247	4.92453	-2.83237	0	
2.5253	6.15196	-3.44605	0	
2.5260	6.46252	-3.44605	0	
2.5267	7.06884	-2.52553	0	
2.5273	11.6384	-0.708093	0	
2.5280	16.5334	1.74663	0	
2.5287	18.0566	2.66715	0	
2.5293	18.6629	2.05347	0	
2.5300	18.6629	0.826108	0	
2.5307	16.8292	1.13295	0	
2.5313	14.0933	1.74663	0	
2.5320	12.2596	1.74663	0	
2.5327	11.949	-0.0944123	0	
2.5333	10.4258	-0.708093	0	
2.5340	6.46252	-0.0944123	0	
2.5347	3.71188	-0.0944123	0	
2.5353	2.795	-1.29817	0	
2.5360	0.665476	-2.21869	0	
2.5367	0.0443651	-1.29817	0	
2.5373	-0.251402	0.826108	0	
2.5380	-6.04844	0.519268	0	
2.5387	-10.3223	-2.83237	0	
2.5393	-8.50331	-2.83237	0	
2.5400	-8.79908	0.826108	0	
2.5407	-11.8603	0.519268	0	
2.5413	-12.156	-2.83237	0	
2.5420	-10.9434	-1.29817	0	
2.5427	-9.10963	1.74663	0	
2.5433	-5.14635	0.826108	0	
2.5440	-3.31259	-1.29817	0	
2.5447	-3.31259	-1.91185	0	
2.5453	0.0443651	0.212428	0	
2.5460	4.02244	2.97399	0	
2.5467	5.54564	2.36031	0	
2.5473	5.23508	-0.99133	0	
2.5480	4.62876	-1.29817	0	
2.5487	3.40132	-0.0944123	0	
2.5493	2.795	-1.29817	0	
2.5500	1.2718	-3.75289	0	
2.5507	-1.16828	-3.44605	0	
2.5513	-2.69148	-0.99133	0	
2.5520	-0.872513	0.826108	0	
2.5527	0.961244	-0.708093	0	
2.5533	0.354921	-3.13921	0	
2.5540	0.0443651	-3.75289	0	
2.5547	1.2718	-4.36657	0	
2.5553	1.56757	-3.44605	0	
2.5560	-0.251402	-0.401252	0	
2.5567	-5.44212	-1.60501	0	
2.5573	-11.2392	-5.57033	0	
2.5580	-11.5497	-5.26349	0	
2.5587	-9.10963	-3.75289	0	
2.5593	-9.71596	-4.36657	0	
2.5600	-10.0265	-5.26349	0	
2.5607	-7.58643	-4.36657	0	
2.5613	-6.66955	-3.44605	0	
2.5620	-5.44212	-1.60501	0	
2.5627	-1.47884	-0.99133	0	
2.5633	0.0443651	-0.99133	0	
2.5640	-1.78939	-0.0944123	0	
2.5647	-1.78939	0.519268	0	
2.5653	0.961244	-0.0944123	0	
2.5660	2.48445	-0.99133	0	
2.5667	3.40132	-0.708093	0	
2.5673	5.54564	0.826108	0	
2.5680	8.28148	2.05347	0	
2.5687	9.19836	2.36031	0	
2.5693	8.9026	2.66715	0	
2.5700	7.37939	3.28083	0	
2.5707	8.28148	3.56407	0	
2.5713	10.1152	2.97399	0	
2.5720	8.9026	1.74663	0	
2.5727	4.02244	0.826108	0	
2.5733	1.87812	0.519268	0	
2.5740	0.0443651	-0.99133	0	
2.5747	-2.69148	-0.99133	0	
2.5753	-2.69148	1.13295	0	
2.5760	-1.16828	1.43979	0	
2.5767	-1.47884	1.13295	0	
2.5773	-2.69148	2.36031	0	
2.5780	-1.78939	1.13295	0	
2.5787	-0.872513	-0.0944123	0	
2.5793	-2.69148	1.74663	0	
2.5800	-4.8358	1.13295	0	
2.5807	-4.52524	0.212428	0	
2.5813	-2.69148	2.05347	0	
2.5820	-1.78939	1.74663	0	
2.5827	-1.47884	-0.401252	0	
2.5833	-0.561958	-0.0944123	0	
2.5840	0.0443651	-0.0944123	0	
2.5847	-0.872513	-0.0944123	0	
2.5853	-1.78939	1.74663	0	
2.5860	-1.47884	1.43979	0	
2.5867	-0.251402	-0.0944123	0	
2.5873	0.0443651	-0.0944123	0	
2.5880	1.87812	0.519268	0	
2.5887	4.3182	2.66715	0	
2.5893	4.02244	4.17775	0	
2.5900	2.795	2.05347	0	
2.5907	1.2718	1.13295	0	
2.5913	-1.78939	1.74663	0	
2.5920	-3.00204	-0.708093	0	
2.5927	-2.69148	-2.83237	0	
2.5933	-5.44212	-1.60501	0	
2.5940	-9.10963	-1.60501	0	
2.5947	-7.27588	-2.52553	0	
2.5953	-5.44212	-1.91185	0	
2.5960	-8.19275	-1.91185	0	
2.5967	-10.9434	-3.44605	0	
2.5973	-12.156	-3.75289	0	
2.5980	-12.7624	-4.05973	0	
2.5987	-12.7624	-4.67341	0	
2.5993	-11.8603	-4.67341	0	
2.6000	-10.0265	-4.67341	0	
2.6007	-8.50331	-3.44605	0	
2.6013	-8.50331	-2.21869	0	
2.6020	-7.27588	-2.83237	0	
2.6027	-4.52524	-2.83237	0	
2.6033	-3.60836	-0.99133	0	
2.6040	-4.52524	-0.99133	0	
2.6047	-3.91892	-0.708093	0	
2.6053	0.665476	2.97399	0	
2.6060	5.23508	5.40511	0	
2.6067	5.23508	3.56407	0	
2.6073	3.71188	1.43979	0	
2.6080	5.23508	1.13295	0	
2.6087	7.37939	-0.0944123	0	
2.6093	7.37939	-0.99133	0	
2.6100	8.28148	-0.99133	0	
2.6107	10.7364	-3.44605	0	
2.6113	12.5553	-3.75289	0	
2.6120	13.4722	1.13295	0	
2.6127	13.1764	2.36031	0	
2.6133	14.0933	-1.91185	0	
2.6140	14.6996	-1.91185	0	
2.6147	10.4258	1.43979	0	
2.6153	4.92453	-0.0944123	0	
2.6160	2.795	-3.75289	0	
2.6167	2.48445	-4.67341	0	
2.6173	2.795	-6.18401	0	
2.6180	3.40132	-6.79769	0	
2.6187	0.961244	-6.49085	0	
2.6193	-1.47884	-6.18401	0	
2.6200	-1.16828	-4.98025	0	
2.6207	-4.8358	-4.98025	0	
2.6213	-12.156	-5.87717	0	
2.6220	-13.6792	-5.26349	0	
2.6227	-13.0729	-3.75289	0	
2.6233	-15.2172	-3.13921	0	
2.6240	-14.3003	-2.83237	0	
2.6247	-10.6328	-0.99133	0	
2.6253	-10.3223	2.66715	0	
2.6260	-10.3223	5.71195	0	
2.6267	-6.66955	5.71195	0	
2.6273	-3.00204	6.63247	0	
2.6280	-0.251402	8.14306	0	
2.6287	4.3182	6.63247	0	
2.6293	10.1152	3.56407	0	
2.6300	14.6996	0.826108	0	
2.6307	15.9123	-0.0944123	0	
2.6313	17.4503	2.36031	0	
2.6320	21.7093	2.97399	0	
2.6327	22.9368	-0.708093	0	
2.6333	18.3524	-0.99133	0	
2.6340	14.6996	0.826108	0	
2.6347	16.2228	-1.91185	0	
2.6353	16.8292	-2.21869	0	
2.6360	13.1764	1.43979	0	
2.6367	10.7364	0.212428	0	
2.6373	11.0321	-2.83237	0	
2.6380	9.19836	-1.60501	0	
2.6387	5.54564	-0.0944123	0	
2.6393	5.23508	1.43979	0	
2.6400	5.8414	3.87091	0	
2.6407	2.795	3.56407	0	
2.6413	-0.872513	1.74663	0	
2.6420	-1.47884	1.74663	0	
2.6427	-2.69148	2.66715	0	
2.6433	-3.60836	3.56407	0	
2.6440	-2.08516	3.87091	0	
2.6447	-1.78939	3.87091	0	
2.6453	-2.39571	4.48459	0	
2.6460	-2.69148	5.40511	0	
2.6467	-3.00204	4.17775	0	
2.6473	-2.39571	2.66715	0	
2.6480	-0.872513	3.28083	0	
2.6487	-2.69148	4.48459	0	
2.6493	-5.75267	3.28083	0	
2.6500	-6.66955	0.826108	0	
2.6507	-8.19275	1.74663	0	
2.6513	-10.0265	3.56407	0	
2.6520	-9.4054	2.05347	0	
2.6527	-8.50331	0.826108	0	
2.6533	-7.8822	0.212428	0	
2.6540	-6.96532	-2.83237	0	
2.6547	-8.79908	-4.05973	0	
2.6553	-10.0265	-3.13921	0	
2.6560	-7.27588	-4.36657	0	
2.6567	-7.27588	-4.36657	0	
2.6573	-10.6328	-1.29817	0	
2.6580	-10.9434	-2.52553	0	
2.6587	-10.6328	-5.57033	0	
2.6593	-12.156	-3.75289	0	
2.6600	-10.3223	-1.91185	0	
2.6607	-8.19275	-2.83237	0	
2.6613	-9.10963	-1.60501	0	
2.6620	-7.27588	-1.91185	0	
2.6627	-3.31259	-3.75289	0	
2.6633	-3.31259	-0.708093	0	
2.6640	-1.47884	5.40511	0	
2.6647	3.40132	3.87091	0	
2.6653	5.54564	0.212428	0	
2.6660	6.46252	0.212428	0	
2.6667	7.67516	0.826108	0	
2.6673	8.9026	2.36031	0	
2.6680	9.19836	3.87091	0	
2.6687	8.28148	2.05347	0	
2.6693	7.67516	-0.0944123	0	
2.6700	9.19836	0.212428	0	
2.6707	8.28148	-0.99133	0	
2.6713	4.62876	-2.52553	0	
2.6720	3.71188	-0.401252	0	
2.6727	2.795	1.43979	0	
2.6733	-1.47884	-0.708093	0	
2.6740	-3.00204	-2.83237	0	
2.6747	-3.00204	-1.91185	0	
2.6753	-6.96532	-0.708093	0	
2.6760	-7.27588	-0.99133	0	
2.6767	-3.00204	-2.52553	0	
2.6773	-3.60836	-1.91185	0	
2.6780	-7.27588	-1.91185	0	
2.6787	-6.96532	-3.13921	0	
2.6793	-5.75267	-0.708093	0	
2.6800	-6.66955	3.56407	0	
2.6807	-7.58643	2.97399	0	
2.6813	-7.58643	1.74663	0	
2.6820	-7.27588	3.56407	0	
2.6827	-6.96532	3.56407	0	
2.6833	-6.96532	2.05347	0	
2.6840	-7.58643	2.97399	0	
2.6847	-6.66955	3.87091	0	
2.6853	-3.60836	3.56407	0	
2.6860	0.961244	3.87091	0	
2.6867	3.71188	4.79143	0	
2.6873	3.71188	5.71195	0	
2.6880	5.23508	5.40511	0	
2.6887	7.06884	3.56407	0	
2.6893	7.67516	2.66715	0	
2.6900	7.37939	3.56407	0	
2.6907	7.37939	4.17775	0	
2.6913	8.28148	4.48459	0	
2.6920	8.28148	4.17775	0	
2.6927	5.8414	2.66715	0	
2.6933	3.40132	0.826108	0	
2.6940	2.795	-0.0944123	0	
2.6947	0.665476	-0.0944123	0	
2.6953	-2.39571	-0.0944123	0	
2.6960	-3.60836	-1.91185	0	
2.6967	-3.60836	-4.67341	0	
2.6973	-2.69148	-4.36657	0	
2.6980	-0.872513	-2.83237	0	
2.6987	-2.39571	-3.13921	0	
2.6993	-4.52524	-3.75289	0	
2.7000	-3.60836	-3.44605	0	
2.7007	-3.91892	-3.44605	0	
2.7013	-6.359	-4.98025	0	
2.7020	-2.69148	-5.87717	0	
2.7027	2.18868	-3.75289	0	
2.7033	1.87812	-1.91185	0	
2.7040	0.665476	-2.52553	0	
2.7047	1.2718	-2.83237	0	
2.7053	1.87812	-1.29817	0	
2.7060	2.795	1.74663	0	
2.7067	2.795	3.28083	0	
2.7073	-3.00204	1.74663	0	
2.7080	-6.66955	0.826108	0	
2.7087	-2.69148	1.74663	0	
2.7093	0.0443651	0.212428	0	
2.7100	-0.561958	-2.52553	0	
2.7107	0.961244	-1.60501	0	
2.7113	2.18868	-0.99133	0	
2.7120	0.665476	-3.13921	0	
2.7127	-0.872513	-3.75289	0	
2.7133	-2.39571	-1.91185	0	
2.7140	-3.00204	-2.52553	0	
2.7147	-1.47884	-2.52553	0	
2.7153	-1.16828	-1.29817	0	
2.7160	-2.69148	-2.52553	0	
2.7167	-3.00204	-4.67341	0	
2.7173	-5.44212	-4.67341	0	
2.7180	-8.79908	-4.67341	0	
2.7187	-8.19275	-4.67341	0	
2.7193	-6.359	-2.83237	0	
2.7200	-6.96532	-1.91185	0	
2.7207	-6.04844	-1.60501	0	
2.7213	-4.22947	-1.29817	0	
2.7220	-4.52524	-0.401252	0	
2.7227	-6.96532	-0.0944123	0	
2.7233	-7.58643	-0.708093	0	
2.7240	-3.91892	-1.29817	0	
2.7247	-0.251402	-0.99133	0	
2.7253	-1.16828	-0.401252	0	
2.7260	-3.00204	-1.60501	0	
2.7267	-1.16828	-2.83237	0	
2.7273	0.961244	-2.21869	0	
2.7280	0.961244	-0.99133	0	
2.7287	-1.47884	-0.708093	0	
2.7293	-5.44212	0.519268	0	
2.7300	-7.27588	1.74663	0	
2.7307	-5.44212	0.212428	0	
2.7313	-3.31259	-2.21869	0	
2.7320	-2.39571	-3.13921	0	
2.7327	-3.60836	-2.52553	0	
2.7333	-5.44212	-0.0944123	0	
2.7340	-4.52524	1.74663	0	
2.7347	-1.47884	0.519268	0	
2.7353	-1.78939	-1.29817	0	
2.7360	-4.8358	-1.91185	0	
2.7367	-6.04844	-2.21869	0	
2.7373	-4.52524	-2.83237	0	
2.7380	-2.69148	-2.21869	0	
2.7387	-1.78939	-2.21869	0	
2.7393	-2.69148	-1.60501	0	
2.7400	-1.78939	-0.0944123	0	
2.7407	-0.251402	-1.29817	0	
2.7413	0.665476	-2.21869	0	
2.7420	0.961244	-0.0944123	0	
2.7427	2.18868	0.826108	0	
2.7433	2.795	-1.60501	0	
2.7440	3.71188	-2.21869	0	
2.7447	4.92453	-0.99133	0	
2.7453	6.46252	-0.0944123	0	
2.7460	7.67516	0.212428	0	
2.7467	11.0321	-0.0944123	0	
2.7473	13.1764	0.212428	0	
2.7480	11.0321	2.66715	0	
2.7487	8.28148	3.87091	0	
2.7493	8.59204	2.66715	0	
2.7500	9.50892	0.212428	0	
2.7507	10.1152	-3.13921	0	
2.7513	11.6384	-1.91185	0	
2.7520	13.7828	2.05347	0	
2.7527	15.6165	-0.401252	0	
2.7533	13.7828	-3.13921	0	
2.7540	9.19836	2.36031	0	
2.7547	7.37939	4.48459	0	
2.7553	5.54564	-0.99133	0	
2.7560	1.56757	-1.91185	0	
2.7567	0.961244	-0.0944123	0	
2.7573	2.48445	-2.83237	0	
2.7580	0.961244	-2.52553	0	
2.7587	-0.561958	1.74663	0	
2.7593	0.0443651	3.56407	0	
2.7600	0.961244	4.48459	0	
2.7607	2.795	5.40511	0	
2.7613	4.02244	3.56407	0	
2.7620	3.40132	2.05347	0	
2.7627	2.795	4.48459	0	
2.7633	2.795	6.63247	0	
2.7640	2.795	6.32563	0	
2.7647	5.23508	5.09827	0	
2.7653	5.54564	4.48459	0	
2.7660	2.48445	3.87091	0	
2.7667	-0.251402	3.56407	0	
2.7673	0.0443651	2.97399	0	
2.7680	2.18868	4.48459	0	
2.7687	1.87812	5.40511	0	
2.7693	-1.78939	2.66715	0	
2.7700	-1.47884	-1.91185	0	
2.7707	0.961244	-1.29817	0	
2.7713	-1.78939	2.97399	0	
2.7720	-5.44212	2.97399	0	
2.7727	-4.8358	-1.60501	0	
2.7733	-5.44212	-3.44605	0	
2.7740	-8.19275	-2.83237	0	
2.7747	-8.79908	-4.36657	0	
2.7753	-9.10963	-4.98025	0	
2.7760	-11.5497	-3.75289	0	
2.7767	-13.3835	-3.13921	0	
2.7773	-13.6792	-3.44605	0	
2.7780	-12.156	-2.52553	0	
2.7787	-10.9434	-1.29817	0	
2.7793	-11.5497	-1.60501	0	
2.7800	-10.0265	-2.52553	0	
2.7807	-6.04844	-3.44605	0	
2.7813	-4.52524	-3.13921	0	
2.7820	-3.91892	-0.708093	0	
2.7827	-2.69148	3.56407	0	
2.7833	-5.14635	3.87091	0	
2.7840	-6.359	-0.401252	0	
2.7847	-1.78939	-1.91185	0	
2.7853	0.961244	0.519268	0	
2.7860	0.0443651	0.826108	0	
2.7867	2.795	-0.99133	0	
2.7873	4.62876	0.519268	0	
2.7880	3.71188	1.13295	0	
2.7887	4.62876	-1.91185	0	
2.7893	4.3182	-3.75289	0	
2.7900	0.961244	-2.21869	0	
2.7907	3.40132	-0.0944123	0	
2.7913	7.37939	-1.29817	0	
2.7920	4.3182	-3.13921	0	
2.7927	2.795	-1.91185	0	
2.7933	4.92453	-2.52553	0	
2.7940	2.795	-4.67341	0	
2.7947	0.0443651	-2.83237	0	
2.7953	-2.08516	0.519268	0	
2.7960	-7.27588	-1.29817	0	
2.7967	-10.3223	-3.13921	0	
2.7973	-10.9434	-2.83237	0	
2.7980	-14.3003	-3.75289	0	
2.7987	-15.513	-2.52553	0	
2.7993	-12.7624	-0.708093	0	
2.8000	-13.0729	-0.401252	0	
2.8007	-12.7624	0.212428	0	
2.8013	-7.8822	-0.0944123	0	
2.8020	-3.00204	-0.99133	0	
2.8027	1.56757	-0.0944123	0	
2.8033	7.37939	0.826108	0	
2.8040	11.949	-0.401252	0	
2.8047	13.7828	1.13295	0	
2.8053	14.6996	2.36031	0	
2.8060	16.5334	-0.0944123	0	
2.8067	18.9735	1.13295	0	
2.8073	18.9735	5.40511	0	
2.8080	16.5334	4.48459	0	
2.8087	14.6996	1.43979	0	
2.8093	11.3427	0.826108	0	
2.8100	7.37939	1.43979	0	
2.8107	6.15196	1.74663	0	
2.8113	4.92453	1.74663	0	
2.8120	2.795	-0.99133	0	
2.8127	0.961244	-1.60501	0	
2.8133	-1.16828	-0.0944123	0	
2.8140	-3.60836	-1.91185	0	
2.8147	-3.60836	-3.75289	0	
2.8153	-3.00204	-2.83237	0	
2.8160	-3.60836	-4.05973	0	
2.8167	-3.31259	-4.67341	0	
2.8173	-4.52524	-1.91185	0	
2.8180	-6.66955	-2.21869	0	
2.8187	-5.14635	-4.98025	0	
2.8193	-3.91892	-3.13921	0	
2.8200	-6.66955	-0.0944123	0	
2.8207	-6.66955	-0.401252	0	
2.8213	-4.52524	0.519268	0	
2.8220	-6.359	1.74663	0	
2.8227	-7.27588	0.826108	0	
2.8233	-4.8358	1.43979	0	
2.8240	-5.44212	1.74663	0	
2.8247	-8.19275	-0.0944123	0	
2.8253	-6.359	1.43979	0	
2.8260	-3.60836	3.28083	0	
2.8267	-2.69148	1.13295	0	
2.8273	-1.78939	0.826108	0	
2.8280	-0.872513	2.66715	0	
2.8287	0.354921	2.05347	0	
2.8293	2.795	0.519268	0	
2.8300	4.62876	1.13295	0	
2.8307	4.92453	1.13295	0	
2.8313	5.54564	0.519268	0	
2.8320	5.54564	-0.0944123	0	
2.8327	4.02244	-1.60501	0	
2.8333	4.62876	-1.60501	0	
2.8340	4.92453	-0.99133	0	
2.8347	1.87812	-3.44605	0	
2.8353	-0.251402	-5.57033	0	
2.8360	0.961244	-4.98025	0	
2.8367	0.665476	-4.67341	0	
2.8373	-3.00204	-5.57033	0	
2.8380	-3.91892	-4.67341	0	
2.8387	-2.69148	-3.75289	0	
2.8393	-4.52524	-3.75289	0	
2.8400	-6.359	-2.83237	0	
2.8407	-4.22947	-1.29817	0	
2.8413	-3.31259	-1.29817	0	
2.8420	-5.44212	-1.91185	0	
2.8427	-6.359	0.519268	0	
2.8433	-7.8822	4.17775	0	
2.8440	-10.0265	5.09827	0	
2.8447	-7.27588	2.05347	0	
2.8453	-2.39571	1.13295	0	
2.8460	-3.00204	2.66715	0	
2.8467	-3.91892	1.43979	0	
2.8473	0.0443651	-0.0944123	0	
2.8480	3.10556	1.13295	0	
2.8487	3.40132	2.97399	0	
2.8493	4.62876	2.97399	0	
2.8500	5.54564	1.43979	0	
2.8507	6.46252	-0.401252	0	
2.8513	8.9026	-1.60501	0	
2.8520	8.59204	-1.60501	0	
2.8527	5.8414	0.212428	0	
2.8533	5.8414	0.826108	0	
2.8540	6.15196	-1.91185	0	
2.8547	4.92453	-2.83237	0	
2.8553	6.15196	-0.0944123	0	
2.8560	5.54564	-2.21869	0	
2.8567	1.56757	-5.57033	0	
2.8573	1.2718	-2.21869	0	
2.8580	2.18868	-1.91185	0	
2.8587	-1.16828	-7.41137	0	
2.8593	-0.561958	-6.18401	0	
2.8600	3.71188	-1.91185	0	
2.8607	2.18868	-4.05973	0	
2.8613	0.0443651	-5.57033	0	
2.8620	2.18868	-2.52553	0	
2.8627	2.18868	-1.29817	0	
2.8633	-0.561958	-1.91185	0	
2.8640	-0.872513	-0.0944123	0	
2.8647	-0.872513	0.519268	0	
2.8653	-3.60836	-0.708093	0	
2.8660	-4.52524	1.74663	0	
2.8667	-4.8358	5.09827	0	
2.8673	-7.27588	4.17775	0	
2.8680	-10.0265	1.74663	0	
2.8687	-8.19275	1.13295	0	
2.8693	-4.52524	-0.0944123	0	
2.8700	-4.52524	-0.0944123	0	
2.8707	-3.60836	1.74663	0	
2.8713	2.18868	1.13295	0	
2.8720	3.40132	-0.401252	0	
2.8727	0.0443651	1.74663	0	
2.8733	0.0443651	2.05347	0	
2.8740	1.87812	-0.708093	0	
2.8747	2.795	-0.708093	0	
2.8753	4.02244	-0.0944123	0	
2.8760	2.795	-3.13921	0	
2.8767	0.354921	-4.05973	0	
2.8773	0.665476	-1.91185	0	
2.8780	-1.16828	-0.99133	0	
2.8787	-3.60836	-1.29817	0	
2.8793	-0.872513	-0.99133	0	
2.8800	2.795	-0.708093	0	
2.8807	4.02244	-0.99133	0	
2.8813	6.15196	-0.708093	0	
2.8820	6.46252	1.43979	0	
2.8827	3.71188	3.56407	0	
2.8833	2.795	2.66715	0	
2.8840	3.71188	1.43979	0	
2.8847	4.92453	0.826108	0	
2.8853	7.06884	0.212428	0	
2.8860	8.9026	2.05347	0	
2.8867	9.50892	6.01879	0	
2.8873	7.67516	6.63247	0	
2.8880	4.62876	4.48459	0	
2.8887	5.23508	3.28083	0	
2.8893	6.46252	1.74663	0	
2.8900	2.48445	-0.0944123	0	
2.8907	-0.872513	0.212428	0	
2.8913	0.354921	1.74663	0	
2.8920	-2.08516	2.05347	0	
2.8927	-8.19275	2.66715	0	
2.8933	-10.3223	2.36031	0	
2.8940	-9.4054	2.36031	0	
2.8947	-9.10963	3.56407	0	
2.8953	-9.4054	3.28083	0	
2.8960	-11.8603	1.74663	0	
2.8967	-12.7624	4.48459	0	
2.8973	-10.0265	6.63247	0	
2.8980	-9.71596	2.66715	0	
2.8987	-10.0265	-0.99133	0	
2.8993	-6.66955	-0.401252	0	
2.9000	-3.31259	-0.401252	0	
2.9007	-1.78939	-0.401252	0	
2.9013	-0.251402	-0.401252	0	
2.9020	0.0443651	-1.91185	0	
2.9027	0.665476	-0.99133	0	
2.9033	4.02244	1.74663	0	
2.9040	6.46252	1.74663	0	
2.9047	7.37939	0.826108	0	
2.9053	8.9026	2.36031	0	
2.9060	10.1152	3.87091	0	
2.9067	10.1152	4.79143	0	
2.9073	9.81947	5.40511	0	
2.9080	7.37939	4.48459	0	
2.9087	7.37939	3.56407	0	
2.9093	9.19836	3.87091	0	
2.9100	7.37939	3.28083	0	
2.9107	3.10556	1.74663	0	
2.9113	2.48445	2.36031	0	
2.9120	0.961244	2.36031	0	
2.9127	-1.16828	-0.708093	0	
2.9133	-0.561958	-1.91185	0	
2.9140	0.665476	-1.29817	0	
2.9147	-0.872513	-1.91185	0	
2.9153	-1.16828	-2.52553	0	
2.9160	-2.39571	-0.99133	0	
2.9167	-9.10963	-1.91185	0	
2.9173	-13.9898	-3.75289	0	
2.9180	-12.156	-4.05973	0	
2.9187	-11.8603	-2.83237	0	
2.9193	-15.8235	-1.91185	0	
2.9200	-17.6573	-2.52553	0	
2.9207	-18.87	-3.13921	0	
2.9213	-18.87	-3.44605	0	
2.9220	-14.3003	-2.83237	0	
2.9227	-10.3223	-0.99133	0	
2.9233	-10.0265	-0.0944123	0	
2.9240	-7.58643	-1.60501	0	
2.9247	-3.91892	-1.91185	0	
2.9253	-2.69148	-0.708093	0	
2.9260	0.961244	-1.91185	0	
2.9267	7.37939	-2.83237	0	
2.9273	10.1152	-0.708093	0	
2.9280	10.7364	-0.0944123	0	
2.9287	13.1764	-1.29817	0	
2.9293	15.6165	0.519268	0	
2.9300	17.1397	1.74663	0	
2.9307	17.4503	-0.99133	0	
